0.2535369507495992,0.2689383578927545,0.28695718071784915,0.3122623706497704,0.34905448083303603,0.3994795106072931,0.4636289055073198,0.5397450304492983,0.6307162680424254,0.7324913015249976,0.8373668649103512,0.9384319397934857,1.0295677553510638,1.1054477883414107,1.1615377631045145,1.1940956515620262,1.2001716732172598,1.177608295155192,1.1256691785404644,1.051122138315615,0.9635518826864256,0.8710691036438983,0.7803480507389073,0.6966265310822003,0.6237059093444,0.5639511077559993,0.5182906061073673,0.486216441748745,0.46578420959024686,0.45362350652690586,0.4470421991936483,0.4451331301823506,0.44680749984069756,0.4511083943189581,0.45721078556998485,0.4644215313492151,0.47217937521466924,0.4800553816498746,0.4877549805747542,0.49511636478530663,0.5021096138940359,0.5088366933160297,0.51553145426896,0.5223718714588308,0.5290995683665284,0.5356901362022279,0.5421372019740572,0.548434535253274,0.5545760481742665,0.5605557954345527,0.5663679742947806,0.5720069245787285,0.5774671286733049,0.582743211528548,0.5878299406576271,0.5927222261368401,0.5974151206056162,0.6019038192665144,0.6061836598852235,0.6102501227905626,0.6140988308744812,0.6177314597578523,0.6211633131877479,0.6243877430596275,0.6273965577966283,0.6301821360759733,0.6327374268289696,0.6350559492410099,0.6371317927515712,0.6389596170542154,0.6405346520965893,0.6418526980804244,0.6429101254615378,0.6437036686085382,0.6442288932945556,0.6444810524348045,0.6444559612540115,0.6441500052309881,0.6435601400986302,0.6426838918439193,0.6415193567079208,0.6400652011857858,0.6383206620267496,0.6362855462341328,0.6339602310653405,0.6313456640318632,0.6284433628992752,0.6252554156872366,0.6217844806694921,0.618033786373871,0.6140071315822878,0.6097088853307416,0.6051439869093165,0.6003179458621815,0.5952368419875897,0.5899073253378802,0.5843366162194762,0.5785325051928861,0.5725033530727026,0.5662580909276043,0.5598062200803533,0.5531578121077976,0.5463235088408694,0.5393094549889166,0.5320855773317472,0.5246505861275593,0.5170115473207344,0.509175504121505,0.5011494770059545,0.49294055163906414,0.4845568821663386,0.47600733827742875,0.4673007808679226,0.45844604809925876,0.44945195539872634,0.44032729545946586,0.4310808382404681,0.42172133096657555,0.41225749812848045,0.40269804148272653,0.39305164005170845,0.38332695012367135,0.3735326052527117,0.3636772162587764,0.35376937122766305,0.34381763551102074,0.3338305517263488,0.32381663975699804,0.3137843967521694,0.30374229712691486,0.2936987925621378,0.28366231200459163,0.2736412616668815,0.26364402502746265,0.25367896283064156,0.24375441308657522,0.23387869107127185,0.22406008932659027,0.21430687766024034,0.2046273031457827,0.19502959012262905,0.18552132659691228,0.17610169427437816,0.16677585483964452,0.15755176206609914,0.14843712112129478,0.13943871836002908,0.13056250235862535,0.12181419184097377,0.11319929289869858,0.10472309899115986,0.09639069094545172,0.08820693695640308,0.08017649258657783,0.07230380076627442,0.06459309179352608,0.05704838333410113,0.0496734804215023,0.04247197545696721,0.03544724820946825,0.028602465815712363,0.021940582780141743,0.015464340974932813,0.009176269639997164,0.00307868538298086,-0.0028263078207351098,-0.0085368186280351,-0.014051168328068596,-0.019367890842250213,-0.024485732724260193,-0.029403653160043577,-0.03412082396781098,-0.038636629598038125,-0.04295066713346584,-0.047062746289100336,-0.05097237219100955,-0.05467668344155595,-0.05817471061191553,-0.06146641743998983,-0.06455240706132806,-0.06743392200912804,-0.07011283518007948,-0.07259133637761676,-0.07487185176815607,-0.0769574215214369,-0.07885172520484678,-0.08055908178342115,-0.08208444961984362,-0.0834334264744457,-0.08461224950520702,-0.08562779526775502,-0.08648757971536516,-0.08719975819896122,-0.08777312546711455,-0.0882171156660447,-0.08854180233961921,-0.08875789842935362,-0.08887675627441144,-0.08891036761160422,-0.0888702411723235,-0.08876553764190451,-0.08860883317465122,-0.0884128325696183,-0.08819004525424701,-0.0879527852843653,-0.08771317134418774,-0.08748312674631553,-0.08727437943173666,-0.08709846196982549,-0.0869667115583432,-0.08689027002343774,-0.08688008381964332,-0.08694623568396402,-0.08709745501304761,-0.0873422050989814,-0.08768810080027244,-0.08814190251336015,-0.08870951498496252,-0.08955466571686069,-0.09060484735259268,-0.09126387822000644,-0.09124383920998945,-0.09058744402464795,-0.0896680391773072,-0.08901446348592791,-0.08851028803767552,-0.08811634214736107,-0.08782525066026266,-0.08762882615564714,-0.08751806894677003,-0.08748452845530943,-0.0875216409986593,-0.08761522318403887,-0.08775081448926055,-0.08791449156910923,-0.08809286825534197,-0.08827309555668829,-0.0884428616588502,-0.0885903919245018,-0.08870444889328966,-0.08877433228183279,-0.0887898789837226,-0.08874146306952263,-0.08861999578676893,-0.08841692555996997,-0.08812423799060635,-0.08773445585713134,-0.08721181563555809,-0.0865098538263801,-0.08577554585862826,-0.08515087255992054,-0.08475479490208064,-0.08468325400113708,-0.08500917190690074,-0.08578266822033241,-0.08703135497411547,-0.08875989808651318,-0.090949943619994,-0.09356011778123191,-0.0965163068569703,-0.09940946433776075,-0.10153834244548393,-0.10234122266007208,-0.10142050573708472,-0.09854271170770865,-0.09363847987875805,-0.08680256883267427,-0.07829385642752597,-0.06851919324332734,-0.05787507870481982,-0.046945224860826175,-0.03614497791149768,-0.02562740068084839,-0.015283272616755932,-0.004741089790960733,0.006632935100932549,0.0197348727394568,0.035640572000298305,0.053091344222788224,0.07533559529678385,0.10690829316293736,0.15092651276088018,0.20908943602922256,0.2816783519055538,0.3675566563264418,0.4641698522274341,0.5675455495430605,0.6722934652068173,0.7716054231511933,0.8571446430834432,0.9202970403373868,0.9573722419497113,0.9669203493191171,0.9491366672336943,0.9058617029860762,0.8405811663734414,0.7584259696975126,0.666172227764554,0.572241257885385,0.4865130503585603,0.41390687199182846,0.3541379958482495,0.3068417744945895,0.27135183173626803,0.246700062617357,0.23161663342058197,0.22452998166732113,0.2235668161176062,0.22655211677012152,0.23129286650463463,0.23727983149200535,0.2442253152960521,0.2518209734782593,0.259806910989376,0.2679716821694156,0.27615229074765396,0.2842341898426324,0.29215128196215595,0.29988591900329314,0.3074689022523766,0.31497827976475595,0.32240615454679855,0.3296988931568804,0.3368480819403263,0.34384546795599763,0.35068295897629237,0.35735277309782426,0.36384799197248047,0.3701620641745047,0.3762885990187145,0.382221366533464,0.38795429746064464,0.3934814832556843,0.3987971760875475,0.4038957888387357,0.4087718951052876,0.4134202291967777,0.4178356861363182,0.4220133216605578,0.42594835221968147,0.42963937593360335,0.4330913151516427,0.4362981838111458,0.4392535841061399,0.4419516069087873,0.4443868317693864,0.44655432691637087,0.44844964925630987,0.4500688443739086,0.45140844653200773,0.4524654786715831,0.4532374524117468,0.4537223680497461,0.4539187145609637,0.4538254695989185,0.45344209949526443,0.4527685592597915,0.4518052925804247,0.45055323182322504,0.44901379803238933,0.44718890093024943,0.445080938917273,0.4426926982038109,0.44002677191593403,0.43708592128872703,0.43387336554936096,0.4303928119131848,0.4266484562736829,0.42264498320247496,0.4183875659493165,0.41388186644209873,0.4091340352868484,0.4041507117677274,0.3989390238470343,0.39350658816520184,0.38786151004079966,0.38201095843050964,0.3759438700298948,0.36966105847811165,0.36316932513219263,0.35647551094908136,0.34958649648563156,0.34250920189860784,0.33525058694468546,0.3278176509804504,0.3202174329623988,0.31245701144693877,0.30454350459038765,0.29648407014897393,0.28828590547883653,0.2799562475360259,0.271502372876502,0.26293159765613605,0.2542512776307097,0.24546880815591562,0.23659162418735646,0.22762720028054617,0.2185830505909093,0.20946674876732033,0.20028610478584286,0.191049080462599,0.18176367852301073,0.17243794129241086,0.16307995069604236,0.15369782825905937,0.14429973510652622,0.13489387196341826,0.12548847915462094,0.1160918366049305,0.10671226383905526,0.09735811998161228,0.08803780375713005,0.07875975349004766,0.06952635017917397,0.060338960488092466,0.05120478769196223,0.042130861340297324,0.03312403655315359,0.024190994021128103,0.01533824000535945,0.0065721063375275175,-0.002101249580146255,-0.01067584477489907,-0.01914587070342641,-0.027505693251882787,-0.03574985273588099,-0.04387306390049234,-0.05187021592024693,-0.05973637239913324,-0.0674667713705984,-0.07505682529754801,-0.08250212107234695,-0.08979842001681675,-0.09694165788223957,-0.10392793848274474,-0.11075344291905377,-0.1174144035305353,-0.12390709961435234,-0.13022796444421142,-0.13637360572327784,-0.14234080558417517,-0.14812652058898587,-0.15372788172925075,-0.1591421944259691,-0.16436693852959902,-0.16940192486689684,-0.1742457522772435,-0.17889310947686557,-0.18333930561981415,-0.18758029535080248,-0.19161267880520627,-0.1954337016090633,-0.19904125487907331,-0.20243387522259865,-0.20561074473766383,-0.20857169101295484,-0.21131718712782074,-0.21384835165227245,-0.21616694864698305,-0.21827538766328786,-0.22017672374318445,-0.22187465741933252,-0.22337353471505395,-0.22467834714433282,-0.22579473171181547,-0.22672897091281038,-0.22748799273328824,-0.228079370649882,-0.22851132362988663,-0.22879271613125948,-0.22893306376568928,-0.2289426722118552,-0.2288326456525919,-0.22861474111360014,-0.228301361111243,-0.22790555365254575,-0.22744101223519578,-0.22695804104146627,-0.22651951196018785,-0.2261111498411502,-0.22571845237193514,-0.2253282404986196,-0.22492865842577514,-0.22450917361646827,-0.2240605767922603,-0.2235749819332074,-0.22304582627786046,-0.22246787032326543,-0.22183719782496286,-0.22115121579698824,-0.22040865451187192,-0.2196095675006391,-0.21875533155280974,-0.2178486467163987,-0.21689353629791558,-0.2158953468623649,-0.21486074823324605,-0.2137977334925532,-0.2127156189807753,-0.21162504429689621,-0.2105379722983947,-0.20946768910124403,-0.2084288040799129,-0.20743724986736434,-0.20651028235505633,-0.2056664806929418,-0.20492574444083542,-0.20430915535419658,-0.2038373877836677,-0.20347416348101421,-0.2031710636531977,-0.20289807883174132,-0.2026288421626916,-0.202340629406618,-0.20201435893861341,-0.20163459174829354,-0.20118953143979745,-0.2006710242317873,-0.20007455895744836,-0.19939926706448907,-0.19864792261514097,-0.19782694228615885,-0.19694638536882045,-0.1960199537689269,-0.1950649920068022,-0.1941024872172937,-0.19315706914977188,-0.19225701016813027,-0.19190831308646275,-0.19279279722328918,-0.19452491456618567,-0.19673092927762542,-0.19907373418471244,-0.2012528507791813,-0.20300442921739767,-0.20410124832035761,-0.20435271557368817,-0.20360486712764705,-0.20174036779712282,-0.19867851106163464,-0.1943752190653326,-0.18882304261699748,-0.18205116349874242,-0.17412568843435902,-0.16514993756140034,-0.155263928187412,-0.1446443062845704,-0.13354084481908257,-0.12248509428787363,-0.111634822139954,-0.10080031025783988,-0.08950090219691823,-0.07696500318544593,-0.06213008012455033,-0.043642661588229395,-0.021009685243385586,0.007282705134552549,0.0459612855309837,0.09811657617171936,0.1650759103569362,0.24640343446117535,0.3399001079333441,0.44205823431758784,0.5502058530176911,0.6541896538783945,0.7442473151519182,0.8129782515605618,0.8553436142967061,0.8686662910228119,0.8526309058714197,0.809283819445151,0.7430331288167017,0.6608150710132324,0.5720341394283206,0.48313571305384295,0.398966949674277,0.32331542820708103,0.2589091487026935,0.20741653314073286,0.1694469767912348,0.1445518124359021,0.1312230780471706,0.12689329291389126,0.12793540592186994,0.13055059491340928,0.13500722956761158,0.14100151793486093,0.14805554538913887,0.15576805928326964,0.1638144689489189,0.17194684569659444,0.1799939228156465,0.18786109557426695,0.19553042121948974,0.2030606189771919,0.2105754647968576,0.21802674836999847,0.22536159008342904,0.23257328699287322,0.23965527918587504,0.2466011497817976,0.2534046249318244,0.2600595738189583,0.2665600086580226,0.2729000846956596,0.27907410021033185,0.285076496512322,0.2909018579437321,0.2965449118784839,0.30200052872231925,0.30726372191279977,0.3123296479193068,0.3171955489025314,0.32186605663266926,0.3263357259371004,0.33059739657023984,0.334642100524865,0.33846080699616876,0.3420449812640409,0.34538658469306927,0.34847807473253933,0.35131240491643406,0.3538830248634337,0.35618388027691666,0.3582094129449587,0.3599545607403331,0.3614147576205107,0.36258593362765973,0.3634645148886467,0.36404742361503517,0.3643320781030862,0.364316392733759,0.3639987779727095,0.3633781403702923,0.3624538825615586,0.36122590326625786,0.35969459728883685,0.3578608555184398,0.35572606492890907,0.35329210857878385,0.35056136561130125,0.3475367112543965,0.3442215168207017,0.3406196497075468,0.33673547339695936,0.33257384745566465,0.328139312441699,0.3234229431656321,0.3184236192374739,0.3131452933147023,0.3075920512830798,0.3017685302469749,0.2956818103987737,0.28933991083985977,0.2827511055319545,0.2759238708306599,0.26886681713336297,0.2615886880657363,0.2540983604817371,0.24640484446360786,0.238517283321876,0.23044495359535358,0.2221972650511382,0.21378376068461247,0.2052141167194432,0.196498142607584,0.18764578102927185,0.17866710789302928,0.16957233233566418,0.1603717967222686,0.1510759766462205,0.14169548092918252,0.1322410516211022,0.12272356400021239,0.11315402657303084,0.1035435810743601,0.09390350246728797,0.0842451989431874,0.07458021192171616,0.06492021605081698,0.05527700197921838,0.045649951413138955,0.03604000861590792,0.02645862945481229,0.01691702280854437,0.007426150567201029,-0.0020032723677155025,-0.011361005127882377,-0.02063886792245548,-0.029829797511588204,-0.03892698311257041,-0.047923860931287074,-0.056814114162218404,-0.06559167298843935,-0.07425071458161991,-0.0827856631020254,-0.09119118969851571,-0.0994622125085461,-0.10759389665816675,-0.11558165426202287,-0.12342114442335463,-0.13110827323399724,-0.1386391937743809,-0.14601030611353108,-0.1532182573090679,-0.16025994140720695,-0.16713249944275807,-0.17383331943912722,-0.1803600364083144,-0.18671053235091506,-0.1928829362561202,-0.1988756241017144,-0.20468721885407845,-0.21031659046818796,-0.2157628558876133,-0.22102537904452016,-0.22610377085966915,-0.23099788924241563,-0.23570783909071052,-0.2402339722910991,-0.2445744687501764,-0.24872246255943656,-0.2526744521739022,-0.2564276448504061,-0.25997885164700385,-0.26332484840656556,-0.26646318209530107,-0.2693923104780489,-0.2721113807383385,-0.2746201990636622,-0.27691923064547547,-0.279009599679197,-0.2808930893642085,-0.2825721419038548,-0.2840498585054438,-0.28532999938024667,-0.2864169837434972,-0.28731588981439304,-0.2880324548160943,-0.2885730749757245,-0.2889448055243702,-0.28915536069708103,-0.2892131137328698,-0.2891270968747123,-0.2889070013695475,-0.2885631774682776,-0.28810663442576767,-0.28754904050084595,-0.286902722956304,-0.2861806680588962,-0.2853965210793401,-0.28456458629231646,-0.2836998269764691,-0.28281786541440485,-0.2819349828926938,-0.2810708004152725,-0.2803064262533367,-0.2796604718432892,-0.2791163726861202,-0.27865845685727775,-0.27827216738509486,-0.2779440379891051,-0.27766149009284496,-0.27741282537007295,-0.27718722574476895,-0.2769747533911348,-0.2767663507335939,-0.2765538404467913,-0.27632992545559387,-0.27608818893508985,-0.2758230943105896,-0.27552998525762495,-0.27520508570194935,-0.274845499819538,-0.2744492120365877,-0.2740150870295171,-0.27354286972496644,-0.2730331852997977,-0.27248753918109436,-0.27190831704616186,-0.2712987848225271,-0.2706630886879388,-0.27000625507036724,-0.2693341906480045,-0.26865368234926434,-0.2679723973527821,-0.2672988830874149,-0.26664256723224145,-0.2660137577165623,-0.26541998446764864,-0.2648265341060273,-0.26418021415326914,-0.26344279249913305,-0.26259160790159664,-0.26161956998685704,-0.2605351647122996,-0.25936263323159675,-0.2581420119474161,-0.2569288945148504,-0.255794215341874,-0.2548243639229091,-0.2541212997415223,-0.2538025531494994,-0.25400122536684533,-0.25489097035169805,-0.25713127069675784,-0.2603327192527145,-0.26374588466101023,-0.2667342017648496,-0.26877397160919947,-0.2694543614407891,-0.2684774047081098,-0.2656580010614155,-0.2609239163527223,-0.2543157826358085,-0.24598709816621334,-0.23620422740124256,-0.2253464009999603,-0.2139057158231941,-0.20248713493353387,-0.19296580058039364,-0.18653337291700775,-0.18054511341296464,-0.17256798171252896,-0.16048337562704076,-0.1424871311349153,-0.11708952238164329,-0.08311526167979069,-0.03970349950899886,0.013692175484015849,0.0773037364854612,0.1510487194806536,0.23453029259274683,0.3270373025048116,0.4275441687382707,0.5330506683882343,0.6330581250028284,0.7171787427865608,0.7777744050943408,0.8099513107488114,0.8115599740403485,0.783195224727063,0.7281962080347986,0.6526463846571324,0.5651834226580901,0.47412725791482035,0.38595913254101855,0.3057330261800337,0.2370444482549832,0.18203043796875262,0.14136956430399497,0.11428192602313313,0.09852915166835642,0.09044711447638742,0.08746509360325551,0.08861971133202051,0.0927581083412295,0.09890605502221259,0.10626795147908298,0.11422682752873696,0.12234434270085395,0.13036078623789607,0.1381950770951106,0.14594476394052316,0.15379231745211064,0.16157297162610731,0.16924699764748022,0.17680484618792416,0.18423747893355785,0.19153670182458893,0.19869465500734612,0.2057036355936728,0.2125560228780195,0.21924443136477823,0.22576172836733077,0.2321010340080478,0.23825572121828967,0.24421941573840628,0.24999114442505005,0.255570120063496,0.26094711015176336,0.2661133081839644,0.2710603984861058,0.275780556216089,0.28026644736371065,0.2845112287506616,0.2885085480305275,0.292252543688788,0.2957378450428187,0.2989595722418889,0.30191333626716266,0.3045952389316991,0.3070018728804515,0.3091303215902684,0.31097815936989237,0.31254345135996103,0.3138247535330065,0.3148211126934557,0.31553206647763016,0.31595764335374577,0.3160983626219137,0.3159552344141393,0.3155297596943226,0.31482393013066734,0.3138398323932762,0.3125787727768716,0.3110422937294371,0.3092324285308511,0.3071517012928863,0.30480312695921113,0.3021902113053877,0.2993116246070598,0.2961607044185753,0.2927396189697025,0.2890509862219938,0.28509767362661137,0.28088279812432904,0.27640972614553116,0.2716820736102125,0.2667037059279794,0.26147873799804844,0.25601153420924694,0.2503067084400138,0.24436912405839825,0.23820389392206015,0.23181638037827068,0.22521219526391115,0.2183971999054746,0.21137750511906414,0.2041594712103942,0.1967497079747897,0.18915507469718665,0.1813826801521315,0.17343988260378185,0.16533428980590623,0.15707375900188378,0.14866639692470449,0.14012055979696914,0.13144485333088932,0.1226481327282877,0.11373971929241414,0.10473017112090824,0.09563057694070029,0.0864523066795898,0.07720063921786713,0.06787176517298463,0.05847583780966518,0.04902340411941659,0.03952479211329549,0.02999011082190698,0.02042925029540503,0.010851881603492028,0.0012674568354190813,-0.008314790900013939,-0.017885847474458837,-0.027436917740019766,-0.03695942552924829,-0.046445013655151426,-0.05588554391118619,-0.06527309707126094,-0.07459997288973555,-0.08385869010142082,-0.09304198642157942,-0.10214281854592512,-0.11115436215062297,-0.12007001189228958,-0.12888338140799271,-0.1375883033152516,-0.14617882921203684,-0.15464922967677044,-0.1629939942683256,-0.1712078315260268,-0.17928566896965037,-0.1872226530994234,-0.19501414939602468,-0.20265574232058436,-0.21014319878915053,-0.2174722665064758,-0.2246388166714348,-0.23163893920790782,-0.23846894302022623,-0.24512830711173125,-0.2516129271700252,-0.25791371807682817,-0.26402224142869746,-0.2699307086307269,-0.27563198089654667,-0.2811195692483233,-0.28638763451675975,-0.29143098734109524,-0.2962450881691056,-0.30082604725710294,-0.3051706246699357,-0.3092762302809888,-0.31314092377218344,-0.3167634146339773,-0.3201430621653645,-0.3232798754738754,-0.3261745134755768,-0.328828284895072,-0.33124314826550055,-0.33342171192853864,-0.33536723403439817,-0.3370836225418283,-0.3385754352181139,-0.3398478796390767,-0.3409068131890746,-0.341758743061002,-0.3424108262562895,-0.3428708695849042,-0.3431473296653496,-0.34324931292466554,-0.34318667753395565,-0.34297090534246694,-0.3426268145675203,-0.3422237689431917,-0.341763152019783,-0.3412370849622125,-0.34063872830225705,-0.339962257595885,-0.33920286342325684,-0.3383567513887245,-0.3374211421208321,-0.33639427127231497,-0.3352753895201009,-0.334064762565309,-0.3327636711332503,-0.3313744109734277,-0.3299002928595357,-0.3283456425894608,-0.32671580098528125,-0.325017123893267,-0.32325698218387966,-0.32144376175177297,-0.31958686351579235,-0.3176967034189747,-0.31578471242854916,-0.3138633365359364,-0.31194603675674887,-0.3100472891307909,-0.3081825847220586,-0.30636842961873983,-0.3046223449332142,-0.3029628668020532,-0.3014095463860202,-0.29998294987007,-0.2987046584633496,-0.2975970500059934,-0.29663640174221245,-0.2957713439759745,-0.2949713000275126,-0.2942090469991741,-0.29346072323823075,-0.2927058283368783,-0.2919272231322371,-0.2911111297063515,-0.29024713138619024,-0.2893281727436463,-0.288350559595537,-0.2873139590036038,-0.28622139927451257,-0.2850792699598533,-0.28389732185614025,-0.28268866700481227,-0.281469778692232,-0.28026049144968673,-0.27908400105338776,-0.27796686452447084,-0.2777617308946,-0.2790067688257983,-0.2811898966184344,-0.28384969046468916,-0.28657573266470754,-0.28900861162659874,-0.29083992186643626,-0.2918122640082578,-0.2917192447840654,-0.29040547703382535,-0.28776657970546793,-0.283749177854888,-0.27835090264594453,-0.2716203913504606,-0.2636572873482239,-0.25461224012698597,-0.24468688654118734,-0.23413341385313233,-0.2232545456022576,-0.21240398986771572,-0.20187793951538113,-0.19141209190327058,-0.18041310325623122,-0.16809797002879556,-0.15349395230335464,-0.13543857379015803,-0.11257962182730959,-0.08214228466192679,-0.0403825692341978,0.014600961432886852,0.08344409713938149,0.16551726273127643,0.2589255181004985,0.3605265149997643,0.4670124480723924,0.5691251697200286,0.6568130778054526,0.7225239561354588,0.7612049744608557,0.7703026884764647,0.749763039821123,0.7020313560776799,0.632051121960054,0.5469708840492047,0.4553818526780173,0.3648769290757332,0.2813509685807748,0.20900078064074332,0.15032512881242113,0.10612473076176955,0.07550225826393102,0.05586300358726163,0.044346107426486946,0.039387758379415924,0.03936428246865423,0.04287600759476265,0.048747334602104286,0.05602673727884403,0.06398676235694864,0.07212402951218719,0.0801592313641307,0.08803713347615208,0.09592657435542622,0.1040065494659239,0.11202529906657958,0.1199563783644931,0.1277887581600361,0.1355118005296321,0.14311525882575737,0.15058927767694064,0.15792439298776312,0.16511153193885864,0.17214201298691345,0.1790075458646675,0.1857002315809098,0.19221256242048565,0.19854121386802132,0.20468416918641352,0.2106309066250827,0.21637117515236334,0.2218951865252594,0.227193615289446,0.23225759877926763,0.2370787371177398,0.24164909321654732,0.24596119277604656,0.2500080242852629,0.25378303902189264,0.2572801558912845,0.2604943185405494,0.26342201235227125,0.26606030774178735,0.26840673457384745,0.2704591350462204,0.27221560583986115,0.2736746911299125,0.2748353978801874,0.27569719584316915,0.2762600175600113,0.27652425836053734,0.27649077636324143,0.27616089247528786,0.2755363903925109,0.27461951659941525,0.27341298036917616,0.27191995376363876,0.27014407163331833,0.26808943161740084,0.2657605902186509,0.2631558235765644,0.26027292849567496,0.2571153944865851,0.25368698988123545,0.24999176183290592,0.246034036316214,0.2418184181271163,0.23734979088290822,0.23263331702222262,0.227674437805032,0.22247887331264568,0.21705262244771445,0.21140196293422556,0.20553345131750447,0.19945392296421588,0.19317049143499088,0.18669019384590407,0.1800193984024065,0.17316459580470928,0.16613255557436185,0.15893032605425236,0.15156523440860736,0.14404488662299209,0.13637716750430998,0.12857024068080325,0.1206325486020525,0.11257281253897693,0.10440003258383422,0.09612348765022047,0.08775273547307028,0.079297612608657,0.07076823443459235,0.06217445880127585,0.05351236619750053,0.044785119505967926,0.03600190218472854,0.02717170068694752,0.018303304460903596,0.009405305949989933,0.00048610059271362877,-0.008446113177304196,-0.01738333393132826,-0.026317757245509114,-0.035241775700883576,-0.044147978883373865,-0.05302915338378851,-0.061878282797821885,-0.07068854772605425,-0.07945332577395163,-0.08816619155186628,-0.0968209166750361,-0.10541146976268591,-0.11393189833991825,-0.12237600212753677,-0.1307376731473409,-0.1390110004260156,-0.14719024239437464,-0.1552697048955998,-0.16324384033405653,-0.17110729808028477,-0.17885492450970894,-0.18648176300263983,-0.1939830539442738,-0.20135423472469308,-0.208590939738866,-0.21568900038664693,-0.22264444507277567,-0.22945349920687858,-0.2361126575800756,-0.24262435268527383,-0.24898494514542893,-0.2551858806281265,-0.2612191743334227,-0.2670774109938436,-0.272753744874386,-0.2782418997725166,-0.2835361690181726,-0.28863141547376153,-0.293523071534161,-0.2982071391267192,-0.3026801897112543,-0.306939364280055,-0.31098237335788015,-0.3148074970019589,-0.31841358480199095,-0.3218000558801458,-0.32496689889106356,-0.32791467202185465,-0.3306445068246556,-0.3331581249240666,-0.3354578243291434,-0.3375464725861608,-0.3394275067738642,-0.34110493350346904,-0.34258332891866106,-0.3438678386955964,-0.34496417804290147,-0.3458786317016728,-0.3466180539454776,-0.34718986858035283,-0.3476020689448063,-0.34786321790981556,-0.3479824408992032,-0.347957242771202,-0.34779037225916426,-0.3474972333543476,-0.3470928651035625,-0.34659194160917156,-0.3460087720290899,-0.3453573005767851,-0.3446511065212771,-0.3439034041871382,-0.34312704295449314,-0.3423345072590192,-0.34153791659194593,-0.3407490255000553,-0.33997922358568183,-0.33923953550671215,-0.33854062097658577,-0.3378927747642942,-0.3373059266943814,-0.33678964164694414,-0.3363531195576311,-0.33600519541764357,-0.335754347519202,-0.3356087529747473,-0.3355762536761195,-0.3356643267372642,-0.33588008380273077,-0.3361676565678946,-0.3362329557801762,-0.33607357843486335,-0.335729072396531,-0.3352358378368521,-0.33462712723459725,-0.3339330453756346,-0.3331805493529304,-0.33239344856654834,-0.33159240472365015,-0.33079493183849507,-0.3300153962324402,-0.32926501653394036,-0.32855186367854816,-0.327880860908914,-0.3272537837747859,-0.3266692601330097,-0.326122770147529,-0.3256066462893852,-0.32511007333671726,-0.3246190883747622,-0.3241165807958545,-0.32358229229942653,-0.32299281689200854,-0.3223216008872282,-0.3215389429058112,-0.3206110648146115,-0.3193414698970196,-0.31784302257488495,-0.31641802875173236,-0.31530603227556714,-0.31468381125900446,-0.31466533932494073,-0.31530180082645476,-0.3165816176147839,-0.31843044948564625,-0.3207111941792405,-0.32322398738024594,-0.3257062027178226,-0.32783245176561104,-0.32921458404173254,-0.3288500941517708,-0.3259122350663875,-0.3209455911345345,-0.3144359011782145,-0.306787307862249,-0.29832235769427834,-0.2892820010247619,-0.2798255920469782,-0.27003088879702436,-0.25989405315381653,-0.24932965083908995,-0.2381706514173986,-0.22616842829611555,-0.2129927587254328,-0.1987023648236039,-0.18262291915991477,-0.16067111786451124,-0.12947417050045096,-0.08665087952916481,-0.03081164031045653,0.03844155889749674,0.12051513693814492,0.21382391975656492,0.31632017202705176,0.42395158172415387,0.5265770563315963,0.6153899455781952,0.6835997177505972,0.726431957357904,0.7411283495593559,0.7269466796224587,0.6851607891244264,0.6193971082185692,0.5374423110858677,0.44760698361136586,0.35688234539959063,0.27094617233606777,0.19416279658732177,0.12958310660087594,0.07894454710525309,0.042671119109974225,0.01987337990555927,0.008348443063527604,0.004579978436397116,0.004193787197274743,0.006640575742293326,0.011571726428719158,0.01827685682990654,0.026153914153345153,0.03470917524065978,0.043557246567610286,0.052421064244091924,0.06113189401413509,0.06962933125590538,0.07796130098170345,0.08628377410162416,0.09461668865897348,0.1028428618919537,0.11095382119153699,0.11894123077365139,0.12679689167917985,0.13451274177396103,0.14208085247719635,0.1494933275481856,0.15674228368251056,0.1638199672130193,0.1707187612975154,0.17743118591875728,0.18394989788445978,0.19026769082729245,0.19638273180612312,0.20229246829164552,0.20798763082379623,0.213459395755625,0.2186993951283832,0.22369971667152821,0.22845290380272015,0.23295195562782256,0.2371903269409028,0.24116192822423152,0.2448611256482832,0.2482827410717356,0.2514220520414707,0.2542747917925731,0.25683714924833184,0.2591057690202391,0.2610777514079904,0.26275065239948553,0.26412248367082747,0.26519171258632257,0.2659572621984811,0.26641851124801663,0.26657529416384657,0.26642790106309194,0.2659770777510767,0.2652240257213296,0.26417040215558163,0.2628183199237677,0.261170350668513,0.25922972942214706,0.25700048257803626,0.25448712276009244,0.251694498417239,0.2486196174830055,0.24526183495793372,0.2416254891219826,0.23771515244419253,0.23353562297573624,0.2290919243499306,0.224389305782224,0.21943324207020928,0.2142294335936108,0.20878380631429774,0.2031025117762702,0.19719192710567374,0.19105865501078395,0.18470952378202254,0.1781515872919414,0.17139212499523815,0.16443864192874028,0.15729886871142193,0.1499807615443863,0.1424925022108838,0.13484249807629323,0.12703938208814153,0.11909201277608304,0.11100947425192088,0.10280107620958559,0.09447635392515603,0.0860450682568388,0.07751720564498892,0.06890297811208881,0.06021282326276964,0.051457404283789684,0.042647608295138376,0.033793278110149955,0.02489075322985662,0.01594457911659503,0.006963500365043386,-0.002043932597048703,-0.011069363508837447,-0.02010463027640793,-0.02914176497275062,-0.038172993837785135,-0.047190737278339265,-0.056187609868158434,-0.06515642034791372,-0.07409017162518185,-0.08298206077446857,-0.09182547903718527,-0.10061401182167166,-0.1093414387031739,-0.11800173342386619,-0.1265890638928291,-0.13509779218607124,-0.14352247454650777,-0.15185786138398175,-0.1600988972752428,-0.16824072096396825,-0.17627866536074244,-0.1842082575430771,-0.1920252187553911,-0.1997254644090305,-0.20730510408224867,-0.21476044152022625,-0.22208797463505098,-0.22928439550573784,-0.2363465903782095,-0.2432716396653148,-0.2500568179468113,-0.2566995937867972,-0.26319723319907046,-0.2695503117525263,-0.2757568169453501,-0.28180737796848937,-0.2876931904293336,-0.2934060682332311,-0.2989385246361322,-0.30428369227277574,-0.3094352957716307,-0.31438765175490024,-0.31913566883850986,-0.3236748476321191,-0.32800128073911017,-0.3321116527565985,-0.3360032402754231,-0.3396739118801557,-0.3431221281490918,-0.3463469416542596,-0.34934799696141094,-0.35212553063003027,-0.3546803712133271,-0.3570139392582395,-0.35912824730543585,-0.36102589988931016,-0.36271009353798683,-0.36418461677331676,-0.36545385011088044,-0.36652276605998524,-0.367396929123668,-0.36808249579869273,-0.36858621457555246,-0.368915425938468,-0.3690780623653883,-0.36908264832799087,-0.3689383002916811,-0.36865486865806396,-0.3682850520506998,-0.3678603946145771,-0.3673738434165489,-0.36681921052596406,-0.36619117300365245,-0.3654852729019267,-0.36469791726458056,-0.3638263781268907,-0.3628687925156148,-0.36182416244899346,-0.3606923549367481,-0.35947410198008367,-0.358171000571685,-0.3567855126957211,-0.35532096532784113,-0.35378155043517767,-0.3521723249763436,-0.35049921090143593,-0.3487689951520312,-0.3469893296611901,-0.3451687313534536,-0.3433165821448461,-0.3414431289428723,-0.33955948364652083,-0.3376776231462601,-0.3358103893240427,-0.3339714890533011,-0.3321754941989516,-0.33043784161739076,-0.32877483315649836,-0.32720363565563615,-0.3257422809456465,-0.32440966584885544,-0.3232255521790695,-0.32220967072348833,-0.3213350830224711,-0.32055588641513416,-0.3198405380396682,-0.3191607243832707,-0.318491583819485,-0.31781170711199574,-0.31710313730482126,-0.316351367494958,-0.3155453409324776,-0.31467745316781887,-0.3137435521415607,-0.31274293818442367,-0.31167836401726806,-0.31055603475109617,-0.3093856078870497,-0.3081801933164127,-0.30695635332060855,-0.30573410257120276,-0.30453690812990014,-0.303391689448548,-0.30237627757116603,-0.30269393278494566,-0.3044295765299396,-0.30705035578896417,-0.3100773723875131,-0.313085682993752,-0.3157042991185253,-0.3176161871153491,-0.3185582681804174,-0.3183214183525974,-0.31675046851343214,-0.31374420438714085,-0.30925536654061475,-0.30329065038342534,-0.2959107061678123,-0.28723013898869915,-0.277417508783674,-0.26669535326927396,-0.25534037677424043,-0.2436833528775745,-0.23210901111898571,-0.22117092144239373,-0.21276521194424972,-0.2050225041216765,-0.19511701240382398,-0.1806152727068139,-0.15947614243376926,-0.1300508004747739,-0.09108274720692926,-0.0417078044942771,0.01854588431209952,0.08975785437420333,0.17161531936696847,0.2634131714784421,0.3640556085797463,0.470782251840407,0.5739314938305843,0.6636891498011546,0.7325747140508854,0.7754413599266539,0.7894759398232787,0.7741989851836245,0.7314647064985679,0.6654436191568643,0.5826338255311616,0.4918486881660683,0.40088166405465325,0.31583726355563,0.24113105039357957,0.17948964165874012,0.13195070780719362,0.09786297266070985,0.07497124176754891,0.061076178036042525,0.05435631265036515,0.05310189921185571,0.055827338054030715,0.061271170332750126,0.06839607802640174,0.07638888719987834,0.0846605763137494,0.09284626721473986,0.10080522257190723,0.10862084587666242,0.11659623449008122,0.12469363608186759,0.13270000404700608,0.1406058271876369,0.148401916473359,0.1560794050412397,0.1636297481958201,0.17104472340909924,0.17831643032055286,0.18543729073711443,0.19240004863319424,0.19919777015065998,0.2058238435988564,0.21227197945458634,0.21853955782874263,0.22462700775197722,0.23052536868901988,0.23622571747946478,0.24171958438401064,0.24699895308444528,0.25205626068366094,0.2568843977056395,0.26147670809546686,0.2658269892193189,0.2699294918644747,0.27377890749393996,0.2773700855336968,0.28069803208098065,0.28375819365042015,0.2865464701777353,0.289059215019748,0.2912932349543732,0.29324579018062547,0.2949145943186142,0.29629781440954733,0.2973940709157282,0.29820243772055866,0.2987224421285362,0.2989540648652557,0.29889774007740877,0.29855435533278396,0.297925251620267,0.2970122233498401,0.29581751835258285,0.29434383788067076,0.2925943366073779,0.2905726226270733,0.2882824996521515,0.2857192091414243,0.2828813480338011,0.2797718127841127,0.27639375479699496,0.27275058042688555,0.2688459509780209,0.26468378270444404,0.2602682468099947,0.2556037694483206,0.2506950317228651,0.24554696968687925,0.2401647743434107,0.23455389164531504,0.2287200218095222,0.22266909014075603,0.21640723613872656,0.209940851322413,0.2032765821605877,0.19642133007183368,0.1893822514351419,0.18216675776339483,0.17478251567511047,0.1672374467435365,0.15953972749171338,0.15169778939249282,0.14372031886851888,0.13561625729224738,0.12739480098592623,0.11906540122161544,0.11063776422116617,0.1021218511562429,0.0935278781483006,0.08486631626860756,0.07614339781547613,0.06735367319152086,0.05850534280143163,0.04960775344065293,0.04067005454947612,0.031701198213061846,0.022709939161417364,0.013704834769419435,0.004694245056791313,-0.004313667311874216,-0.013310937027137846,-0.022289796134690856,-0.031242674035377796,-0.04016219748517384,-0.04904119059520762,-0.057872674831741244,-0.06664986688125082,-0.07536595545356335,-0.08401390569650859,-0.09258683400574053,-0.1010780541320439,-0.10948107718135654,-0.11778961161474732,-0.12599756324843797,-0.1340990352537814,-0.14208832815728306,-0.1499599398405802,-0.15770856554046195,-0.16532909784884964,-0.17281662671281636,-0.18016643943456745,-0.18737402067145983,-0.19443505243598305,-0.20134541409577766,-0.20810118237361755,-0.21469863134742706,-0.22113423245026403,-0.22740629959655215,-0.23351516079307527,-0.23945291834823138,-0.24521154136197948,-0.25078356814776437,-0.2561621062325014,-0.26134083235659156,-0.26631399247390686,-0.27107640175180414,-0.2756234445711121,-0.27995107452614365,-0.2840558144246841,-0.28793475628800236,-0.2915855613508403,-0.2950064600614229,-0.2981962528373808,-0.3011546643884337,-0.3038829089358753,-0.3063829170594223,-0.3086571885522657,-0.3107087924210782,-0.31254136688458334,-0.3141591166248829,-0.31556680705449325,-0.31676977116891714,-0.3177739111771339,-0.318585698501601,-0.31921217377825534,-0.31966094685651053,-0.31994019679925967,-0.3200586718828728,-0.32002568959719896,-0.31985113664556514,-0.319545468944776,-0.3191134349104455,-0.3185543210785715,-0.317883748431911,-0.3171176265659218,-0.316271489981274,-0.315360498083848,-0.31439943518473656,-0.31340271050024276,-0.31238435815188226,-0.3113580371663808,-0.31033703147567687,-0.3093342499169188,-0.3083622262324679,-0.3074331190698954,-0.30655871198198514,-0.3057504134267312,-0.30501925676734,-0.30437590026199274,-0.3038302168680123,-0.3033902051598013,-0.30306314617477925,-0.3028559458555764,-0.30277513505003467,-0.3028268695112074,-0.303016929897359,-0.3033507217719657,-0.30364168271148756,-0.30368255716694914,-0.30351712606867964,-0.30318635120951615,-0.30272765007589625,-0.30217489584785684,-0.3015584173990354,-0.3009049992966681,-0.30023788180159267,-0.299576760868245,-0.2989377881446622,-0.2983335709724802,-0.2977731723869355,-0.29726211111686474,-0.29680236158470313,-0.2963923539064873,-0.2960269738918526,-0.29569756304403516,-0.29539191855986985,-0.29509429332979276,-0.2947853959378387,-0.2944423906616432,-0.29403889747244094,-0.29354499203506734,-0.2929272057079566,-0.2921438609850474,-0.2908787761348081,-0.28921805644103615,-0.28748174103544855,-0.2859335227956945,-0.2847799366431806,-0.28416997086275514,-0.2841950669031904,-0.2848891193771841,-0.2862284780526325,-0.2881319744254797,-0.2904609145311471,-0.29301905808455175,-0.29555261796453913,-0.29775026021387657,-0.29924310403925936,-0.2996047218113056,-0.298336448457164,-0.29470837774907416,-0.2888965729536118,-0.2813563714969826,-0.27249018796724533,-0.2626475141143298,-0.2521249188500152,-0.2411660482479546,-0.22996162554364866,-0.21864945113447284,-0.20731440257964975,-0.19597859949121446,-0.18407124305680603,-0.17024559135037684,-0.15314996344239462,-0.13148671028545206,-0.10401221471422262,-0.06853725187181879,-0.01679159834538715,0.05063567349824865,0.13114226556974976,0.22224689391235244,0.3215893103952844,0.42683612854946373,0.531459171643312,0.6251339555279916,0.6995689387409476,0.748802247940509,0.7692016779057085,0.7594646915364017,0.7206181679321808,0.6559584802268691,0.5738728924165724,0.483526090610424,0.3925495292974681,0.30704143134643674,0.23156678800597488,0.16915735890442857,0.12131167205003231,0.08799502383075311,0.06763947901441195,0.057143870748596455,0.052273957181715375,0.051749103153480275,0.054757994123919886,0.060320668239305306,0.06760287297410826,0.07591606513101241,0.08471741084089722,0.09360978556285768,0.10234177408418255,0.1108076705203765,0.11904747831513854,0.12724691024038284,0.13553167970814167,0.14370489705503572,0.15175163244921772,0.1596628248948344,0.16742960810617616,0.17504369502142214,0.18249721908475477,0.18978247448185212,0.1968919121224222,0.20381813964021006,0.21055392141636753,0.2170921925591369,0.22342608256950794,0.22954888394182524,0.23545885345640663,0.24115554511348428,0.24662995282183614,0.2518734533811687,0.25687792146154326,0.26163572960336273,0.2661397482173841,0.2703833455847068,0.27436038785678357,0.27806523905541053,0.28149276107273624,0.28463831367125286,0.2874977544838047,0.29006743901358106,0.2923442206341219,0.29432545058931275,0.2960089779933892,0.2973931498309335,0.29847681095687706,0.2992593040964983,0.299740469845425,0.299920646669632,0.2998006709054422,0.29938187675952704,0.29866609630890606,0.29765565950094647,0.2963533695422272,0.29476209732098774,0.29288484559412514,0.29072510332031476,0.2882868573285775,0.28557459231828514,0.2825930985266265,0.2793378210479178,0.2758073272266549,0.2720054573545421,0.26793628204175346,0.26360410221694325,0.25901344912723523,0.25416908433823393,0.24907599973401232,0.2437394175171239,0.23816479020859635,0.23235780064792738,0.22632436199309736,0.22007061772055325,0.21360294162522536,0.20692793782051047,0.2000524407382894,0.19298351512890816,0.18572845606119753,0.17829478892245382,0.1706902694184575,0.16292288357345464,0.15500084773017586,0.14693260854981685,0.13872684301205862,0.13039245841504632,0.1219385923754108,0.1133746128282474,0.104710118027137,0.09595493654412435,0.08711913532613529,0.0782132554943149,0.06924835013728631,0.06023357668197758,0.05116418098412952,0.042047319139309335,0.03289309160534911,0.023711377876541213,0.01451183808741931,0.005303912419244489,-0.0039031800353641673,-0.013100441292980495,-0.022279094479348338,-0.03143058382940455,-0.040546574687256094,-0.04961895350620274,-0.05863982784871456,-0.06760152638645431,-0.07649659890025516,-0.08531781628014291,-0.09405817052531366,-0.10271087474415613,-0.1112693631542298,-0.11972729108228615,-0.12807853496424781,-0.13631719234522924,-0.14443758187951866,-0.1524342433305858,-0.1603019375710897,-0.1680356465828607,-0.17563057345692043,-0.1830821423934627,-0.19038599870187214,-0.19753800880070538,-0.20453426021770998,-0.21137106158980598,-0.21804494308753147,-0.22455268250899618,-0.23089132048204297,-0.23705812240565022,-0.24305318171114637,-0.24887384710608076,-0.2545119894140924,-0.2599601193708813,-0.26521141620070043,-0.270259727616343,-0.2750995698191547,-0.27972612749902165,-0.28413525383438254,-0.28832347049221657,-0.29228796762805487,-0.29602660388596996,-0.2995379063985857,-0.30282107078706744,-0.30587596116113197,-0.3087031101190379,-0.31130371874759427,-0.3136796566221532,-0.31583346180661626,-0.31776834085342864,-0.3194881688035846,-0.32099748918662274,-0.32230151402062956,-0.323406123812237,-0.32431786755662445,-0.3250439627375166,-0.32559229532718564,-0.3259714197864495,-0.326190559064673,-0.3262596045997671,-0.3261891163181895,-0.3259903226349441,-0.32567512056955206,-0.3252655832460796,-0.3248316258491865,-0.3243770023969902,-0.323892917139122,-0.3233715256886053,-0.32280593502185634,-0.3221902035401576,-0.3215193577895365,-0.32078941515452075,-0.319997350054376,-0.319141088271759,-0.31821950695272,-0.31723243460670025,-0.3161806511065347,-0.315065887688449,-0.3138908269520626,-0.31265910286038595,-0.3113753007398229,-0.3100449572801684,-0.308674560534611,-0.30727154991973016,-0.30584431621549896,-0.30440220156528136,-0.3029554994758351,-0.3015154548173087,-0.30009426382324433,-0.2987050740905752,-0.297361984579628,-0.2960800456141204,-0.2948752588811637,-0.2937645774312603,-0.29276590567830585,-0.2918980993995874,-0.2911809605814484,-0.2906039487918442,-0.2901161259629648,-0.289679062771035,-0.2892589909820448,-0.28882686337312863,-0.28835836765156414,-0.2878339264547712,-0.2872386973503127,-0.28656257283589376,-0.285800180339363,-0.28495088221871057,-0.2840187757620705,-0.28301269318771843,-0.28194620164407336,-0.28083760320969714,-0.27970993489329343,-0.2785909686337097,-0.2775132112999347,-0.27651390469110154,-0.2756350255364845,-0.2755350462115504,-0.27680739862126696,-0.27894132761834933,-0.28146976636346993,-0.28397892464515057,-0.2861082888797686,-0.2875506221115506,-0.2880519640125778,-0.2874116308827823,-0.28548221564994886,-0.2821695878697155,-0.2774328937255697,-0.27128455602885604,-0.26379027421876466,-0.2550690243623464,-0.24529305915449467,-0.23468790791796598,-0.22352980260095437,-0.21168234351962728,-0.19966706984186344,-0.18813361847155807,-0.17714977940824253,-0.1662014957454762,-0.15419286367081797,-0.13944613246585494,-0.11970170139748391,-0.0921180912555578,-0.05327195753342869,0.0008418914102471886,0.07377185238118049,0.1621354280795332,0.260159024317532,0.3621568916920745,0.46246858802783314,0.5554589783770032,0.6355182350195502,0.6970618374629822,0.7345305724425437,0.7423905339210644,0.7156572291315134,0.658531973124192,0.5817175989902504,0.494577732458047,0.4049585631881008,0.3191888447728808,0.242079894737025,0.1769255945371284,0.12550238956193485,0.0880692891321744,0.0628794642945552,0.047344226821430885,0.039541442844308085,0.037747795132456075,0.040438519727299914,0.04628755977848489,0.05416835406123968,0.06315325129075057,0.0725131541257814,0.08171751849725617,0.09043435360823635,0.09853022193394348,0.1060702392217367,0.11331807449113529,0.12073595003379665,0.1285631199327168,0.13628380546738858,0.14386919815424629,0.15131136445860474,0.15860251447255347,0.1657350019149367,0.17270132413137312,0.17949412209423676,0.1861061804026756,0.19253042728259304,0.19875993458666624,0.20478791779432845,0.21060773601178584,0.21621292717843238,0.22160402702162413,0.226778016511486,0.23172628833656658,0.23644075987961782,0.2409138732176087,0.2451385951217126,0.24910841705731876,0.25281735518402265,0.2562599503556308,0.2594312681201629,0.2623268987198455,0.26494295709111865,0.2672759892091191,0.26932222980171866,0.2710779988948923,0.2725401373008994,0.27370601052620774,0.2745735087714972,0.2751410469316566,0.2754075646126958,0.27537252868377166,0.2750359360069017,0.2743983087926184,0.2734606939456646,0.2722246630649939,0.2706923124437699,0.2688662630693673,0.26674966062336963,0.2643461754815732,0.26166000271398204,0.25869586208481343,0.2554583929888549,0.25194217128090124,0.2481474292351586,0.24407830366176925,0.2397391629846168,0.23513460724133586,0.23026946808330076,0.22514880877563784,0.21977792419721254,0.21416234084064312,0.2083078168122858,0.20222034183225054,0.195906137234385,0.18937165596629044,0.18262358258930594,0.17566883327852456,0.16851455582277614,0.16116815906388438,0.15363768248624915,0.14593168444385687,0.13805896122936134,0.13002854074917253,0.12184968252343553,0.11353187768604905,0.10508484898465739,0.09651855078064289,0.0878431690491438,0.07906912137903382,0.07020705697294288,0.06126785664723582,0.05226263283203392,0.043202729571193484,0.03409721146955834,0.024942026687376193,0.015745193379250188,0.006517083238847277,-0.0027321636739752997,-0.011992638933194223,-0.02125466574659586,-0.030508798955800564,-0.039745825036238594,-0.04895676209717372,-0.058132859881679974,-0.06726559976666487,-0.07634669476284606,-0.08536808951477472,-0.0943219603008124,-0.1032007150331535,-0.11199699325780353,-0.12070366615460072,-0.12931383653719405,-0.13782083885306537,-0.14621823918350754,-0.1544998332101184,-0.16265960326353654,-0.17069171929405869,-0.1785905810464135,-0.18635081989916208,-0.19396729886467715,-0.20143511258916283,-0.2087495873526359,-0.21590628826080918,-0.22290107429990993,-0.2297300679930242,-0.2363896237563451,-0.242876327639896,-0.24918699732751393,-0.2553186821368657,-0.26127128814599104,-0.26704343321722646,-0.27262655506731664,-0.278012663198338,-0.28319448273664544,-0.28816545443286,-0.2929197346618826,-0.2974521954228806,-0.30175842433930067,-0.3058347246588569,-0.30967811525354183,-0.31328633061961586,-0.31665782087761746,-0.3197917517723536,-0.3226880046729085,-0.3253471765726358,-0.3277705800891654,-0.32996024346439745,-0.33191891056450795,-0.33365004087994327,-0.3351578095254255,-0.33644711136880123,-0.3375237259756503,-0.3383943732553591,-0.3390665042828444,-0.3395482857572953,-0.3398486000021743,-0.3399770449652167,-0.33994393421843133,-0.33976029695809984,-0.33943787800477665,-0.33898913780328993,-0.3384272524227405,-0.3377729567763157,-0.3370957873015205,-0.33640388772481417,-0.33568966365865244,-0.3349463587643258,-0.3341680547519573,-0.333349671380504,-0.33248696645775605,-0.33157653584033786,-0.3306158134337063,-0.32960307119215304,-0.32853741911880197,-0.3274188052656116,-0.32624801573337303,-0.32502667467171154,-0.3237572442790861,-0.32244302480278797,-0.3210881545389437,-0.3196976098325115,-0.31827720507728485,-0.3168335927158893,-0.31537426323978524,-0.3139075451892648,-0.312442605153456,-0.3109894493109065,-0.30955907025921386,-0.30816356831889,-0.306815910410477,-0.30552990150334897,-0.3043201846157154,-0.3032022408146175,-0.30219238921593133,-0.30130778622107374,-0.3005663533708494,-0.29999428394511757,-0.29955918608617793,-0.29919494715388156,-0.29884487753304456,-0.2984617272098922,-0.29800768577205894,-0.29745438240858785,-0.2967828859099319,-0.2959837046679525,-0.2950567866759206,-0.294011519528516,-0.2928667304218282,-0.2916506861533547,-0.2904010931220036,-0.28916509732809065,-0.287999284373342,-0.2869696794608918,-0.2861517473952844,-0.2856303925824723,-0.2854999590298179,-0.2858642303460923,-0.2868120244282201,-0.2880549563277149,-0.2893965523588529,-0.2907323448339473,-0.2919557462560801,-0.29295804827474825,-0.29362801024549673,-0.29385123289812715,-0.2935110361786025,-0.29248862022365724,-0.29066306536079556,-0.28791133210829445,-0.2841082611751985,-0.2791265734613281,-0.272836870057268,-0.2651076322443816,-0.2558052214947942,-0.2447938794714125,-0.2319357280279013,-0.2170907692087118,-0.20011688524904775,-0.1808698385749046,-0.15888728726064213,-0.13058820477073826,-0.09160922114918413,-0.0391800804086888,0.02784428554242241,0.10898375690007041,0.20213302596459412,0.303561597140546,0.4079137869369245,0.5082624806216889,0.5963400470463858,0.6636457275188391,0.7041457583115213,0.7145643800293855,0.694383837609964,0.6458443803233418,0.5739442617721096,0.486439739891479,0.39382109589305114,0.305280341643251,0.22490703468971435,0.15568377745375253,0.09946948548098221,0.05699971056214887,0.02788664073298418,0.010619100274314541,0.0025625497119845797,0.00011679018410831873,0.001463810503663114,0.005739916132482776,0.012028961922242102,0.019576987200546483,0.027792216168393,0.0362450579001798,0.044668106343687786,0.05295614032010161,0.06116612352398872,0.06943077082118652,0.0776209252069365,0.08570707644182568,0.09367797556204885,0.10152266804436162,0.10923049380606081,0.11679108720500399,0.12419437703959015,0.13143058654877857,0.13849023341207042,0.14536412974952684,0.15204338212175095,0.1585194739826201,0.16479070904921173,0.17085053899319666,0.1766875522121733,0.18229082285904238,0.18764991084199112,0.19275486182450788,0.19759658578206277,0.2021683872211598,0.20646465666131103,0.21048027059640137,0.21421059127560393,0.21765146670339103,0.22079923063952517,0.2236507025990673,0.22620318785236745,0.2284544774250758,0.23040284809813116,0.23204706240777126,0.2333863686455246,0.23442050085821653,0.23514967884796453,0.23557460817218176,0.23569648014357508,0.2355169718301459,0.23503824605518933,0.23426295139729542,0.23319422219034805,0.23183567852352532,0.23019142624129968,0.22826605694343846,0.22606464798500164,0.22359233417217578,0.220846304753582,0.2178278080435119,0.21454136755621753,0.21099180158853093,0.20718422321985816,0.20312404031218687,0.19881695551007755,0.19426896624067244,0.18948636471368668,0.18447573792141803,0.17924369703933513,0.17379518633664523,0.16813458036257278,0.16226654467703147,0.1561960396225046,0.14992832032406064,0.14346893668933763,0.13682373340855888,0.1299988511684467,0.1230008045031815,0.1158365290026667,0.10851326634864643,0.10103855300543316,0.09342022021992623,0.08566639402159205,0.0777854952224853,0.0697862394172271,0.061677636983026696,0.05346899307966011,0.0451699076494912,0.03679027541745061,0.02833848177836495,0.019809416052174914,0.011208789677728887,0.002545431162993784,-0.006172031188219518,-0.014935169276279798,-0.023735755205711383,-0.032565761285218126,-0.04141736002766025,-0.05028292415007678,-0.059155026573665566,-0.06802644042379284,-0.07689013903000057,-0.08573929592598699,-0.09456728484963002,-0.10336757934629849,-0.11213277567188386,-0.12085501544499751,-0.12952663125067376,-0.13814015587810338,-0.14668832232065648,-0.155164063775859,-0.16356051364541602,-0.17187100553518941,-0.18008907325521925,-0.1882084508197028,-0.19622307244701556,-0.20412707255969004,-0.21191478578443693,-0.21958074695212448,-0.22711969109779842,-0.23452655346066234,-0.2417964694840974,-0.2489247748156425,-0.25590700530701405,-0.2627417311152098,-0.2694315882771333,-0.27596772353984345,-0.2823409825810103,-0.2885427992944671,-0.29456519579022683,-0.30040078239446666,-0.30604275764954275,-0.31148490831397596,-0.31672160936246574,-0.32174782398587665,-0.32655910359125134,-0.331151587801798,-0.33552200445690256,-0.33966766961211703,-0.34358648753917037,-0.3472769657980967,-0.350738452830269,-0.3539710946842459,-0.35697563194620824,-0.35975339341850454,-0.3623062961196586,-0.3646368452843637,-0.3667481343634846,-0.3686438450240602,-0.3703282473894162,-0.3718062013349622,-0.37308315555723437,-0.3741651469704029,-0.37505880070480807,-0.3757713301069632,-0.3763105367395525,-0.37668481038143237,-0.3769031290276307,-0.376970187099922,-0.3768788700437417,-0.3766432383192517,-0.37627927128704786,-0.3758025563075862,-0.37522828874118364,-0.3745712719480173,-0.3738459172881256,-0.37306624412140654,-0.3722458798076199,-0.37139805970638484,-0.3705356271771824,-0.3696710335793529,-0.3688163382720985,-0.36798320861448064,-0.3671829199654229,-0.36642635568370796,-0.3657240071279802,-0.3650859691567335,-0.3645218153752257,-0.3640405819686291,-0.3636509053745131,-0.36336103003030673,-0.3631788083733002,-0.36311170084064404,-0.36316677586934953,-0.3633507098962885,-0.3635746630757194,-0.3635700119666214,-0.3633526485679708,-0.3629564061923851,-0.36241246554550555,-0.3617493547259958,-0.36099294922554326,-0.36016647192885776,-0.3592904931136729,-0.3583829304507453,-0.3574590490038543,-0.35653146122980284,-0.35561012697841643,-0.35470235349254436,-0.3538127954080584,-0.35294345475385397,-0.3520936809518491,-0.35126017081698563,-0.3504369685572276,-0.3496154657735632,-0.3487844014600028,-0.3479298620035805,-0.3470352811843531,-0.34608144017540127,-0.34504646754282753,-0.34390583924575907,-0.3426323786363446,-0.3411147976745018,-0.3393600708861008,-0.33770616763584177,-0.33642252236053294,-0.33569843308054204,-0.3356430613997935,-0.33628543250576964,-0.3375744351695119,-0.33937882174561745,-0.3414872098624791,-0.3436081602192226,-0.3453702091195769,-0.3463217648888877,-0.3459310994360604,-0.34358634825355777,-0.33860049251010477,-0.33098000252421106,-0.3216070120351789,-0.3112309746211279,-0.30041161295830315,-0.2895189188210999,-0.27873315308203717,-0.2680448457117847,-0.2572547957791359,-0.2459740714510349,-0.23362400999254912,-0.21943667140764872,-0.20386807373387342,-0.18414206790591767,-0.15574020341087202,-0.11554648841723333,-0.06184738977497673,0.005668166984549383,0.08590879764848593,0.17683633349984615,0.2780563315839395,0.3831784304303164,0.4848204935503342,0.576066588487866,0.650465077567085,0.7020283413215103,0.7252327784938245,0.7150434594275297,0.6741136000871941,0.6106089232299179,0.532069592840784,0.4453315224344283,0.3565263750552303,0.2710815632770999,0.19372024920369524,0.1284613444682146,0.07834589202070552,0.04252818454699777,0.018371062010852354,0.003532892181449412,-0.004056482132677773,-0.006195743083681156,-0.004412097784376502,3.8721691748011544e-05,0.006172458310529724,0.01327633007714225,0.020909030036078944,0.028806255055746147,0.036775702669863575,0.04478621437187421,0.05281183383760939,0.06082879446208409,0.06881551935947462,0.0767526213631401,0.0846229030256025,0.09241135661856606,0.10010516413289772,0.10769369648923016,0.11516756520910797,0.12251678153640005,0.1297330363693292,0.13681021032529112,0.14374437374086,0.15053378667177453,0.15717603087681062,0.1636597736005382,0.16997296535146114,0.17610408950280165,0.1820422701876569,0.18777715559014038,0.193298856831539,0.1985979479143185,0.2036654657221367,0.208492910019832,0.21307224345343367,0.2173958915501516,0.2214567427183868,0.2252481482477216,0.228763922308928,0.2319983419539604,0.23494614711596237,0.23760254060926062,0.2399631881293698,0.24202421825298867,0.24378222243800385,0.2452342550234855,0.24637783322969165,0.2472109371580654,0.2477320097912356,0.24793995699301707,0.2478341475084108,0.24741441296360348,0.24668104786596734,0.24563480960406117,0.24427735590554367,0.24261262887417753,0.2406455075121302,0.23837766924193862,0.23580450470695427,0.23292942297374844,0.22975652248963982,0.22629016646479813,0.22253498287223325,0.21849586444780597,0.21417796869021735,0.2095867178610183,0.20472779898460505,0.19960716384821567,0.19423102900193914,0.1886058757587042,0.18273845019429177,0.17663576314732116,0.17030509021926513,0.16375397177443357,0.15699021293999077,0.150021883605938,0.14285731842513066,0.1355051168132609,0.12797414294887594,0.1202735257733588,0.11241265899094789,0.10440120106871749,0.09624907523659729,0.08796646948735273,0.07956383657660483,0.07105189402281013,0.062441624107280984,0.0537442738741648,0.04497135513046567,0.03613464444602208,0.0272419425845923,0.018289289762838175,0.009285323591869146,0.00023980735304349383,-0.008837687845178238,-0.017937783067256997,-0.027051291550551596,-0.036169218705342246,-0.04528276211480693,-0.054383315039903,-0.06346258704245115,-0.07251263442111881,-0.08152571533143392,-0.0904942801018455,-0.09941097123370078,-0.10826862340126811,-0.11706026345171391,-0.12577911040512588,-0.13441857545448982,-0.1429722619657123,-0.15143396547759877,-0.15979767370187503,-0.16805756652316822,-0.17620801599901567,-0.18424358635987176,-0.19215903400909023,-0.19994930752294493,-0.20760954765060882,-0.21513508731417486,-0.22252145160863554,-0.229764357801903,-0.236859715334789,-0.24380362582102463,-0.25059238304724146,-0.2572224729729895,-0.2636905915710995,-0.269999884301466,-0.27614856638393187,-0.2821285051466451,-0.28793214258117766,-0.2935524947075926,-0.29898315157442884,-0.3042182772587157,-0.3092526098659588,-0.3140814615301541,-0.3187007184137737,-0.3231068407077799,-0.32729686263161195,-0.3312683924331982,-0.3350196123889448,-0.33854927880374647,-0.34185672201097594,-0.3449418463724943,-0.3478051302786415,-0.3504476261482447,-0.3528709604286105,-0.35507733359553256,-0.35706952015328425,-0.3588508686346255,-0.3604253016007968,-0.361797315641524,-0.36297198137501446,-0.3639549434479607,-0.36475242053553664,-0.36537120534140105,-0.36581866459769496,-0.3661027390650429,-0.3662319435325533,-0.3662153668178171,-0.36606267176690876,-0.36578283171228054,-0.3653736468531755,-0.36484559080480683,-0.36421287037803085,-0.3634892750913802,-0.3626883544396239,-0.36182342163009046,-0.360907553582671,-0.35995359092981755,-0.3589741380165434,-0.3579815629004214,-0.35698799735158726,-0.35600528526496594,-0.35504478680780654,-0.354117551760852,-0.3532343936037026,-0.35240588952851964,-0.3516423804400255,-0.35095397095550246,-0.35035052940479544,-0.3498416878303099,-0.34943684198701264,-0.3491451513424308,-0.34893967682483457,-0.34848299046662506,-0.3477433323968743,-0.34678327373629486,-0.34565995922510623,-0.3444251072230333,-0.3431250097093075,-0.34180053228266294,-0.34048711416134214,-0.3392147681830924,-0.3380080808051673,-0.33688621210432373,-0.33586289577682643,-0.3349464391384452,-0.3341397231244558,-0.3334402114550568,-0.3328401351246357,-0.33232648332761594,-0.33188082622720533,-0.33147930760611605,-0.3310926448665672,-0.33068612903028305,-0.3302196247384934,-0.32959723824836595,-0.3284023302427157,-0.3267515280490986,-0.32486802870149784,-0.322946898317415,-0.32115507209786476,-0.319631354327383,-0.3184864183740216,-0.31780280668934946,-0.31763493080845195,-0.3180090713499327,-0.3189233780159122,-0.3203478695920267,-0.3222244339474328,-0.3244668280348014,-0.32696067789032157,-0.32956347863369767,-0.3321045944681565,-0.3343852586804365,-0.3361785736407955,-0.3372295108030078,-0.3372549107043664,-0.3359434829656797,-0.33287421272803547,-0.32736669723950496,-0.3198659191327077,-0.3109344534614189,-0.3010380145489875,-0.29054545572567525,-0.27972875946024556,-0.26876303437669974,-0.2577265274967899,-0.24660062511185207,-0.23526985278277715,-0.22415649720919167,-0.21251645250826254,-0.19711023984468193,-0.17518609800760956,-0.1445501602398274,-0.10356666248043116,-0.05115796521688669,0.013195672226728794,0.08945610391986639,0.17702729732563124,0.27482058791396285,0.38190303166999917,0.48933185676454594,0.5870881546439864,0.6672603076101322,0.7240439888201963,0.7537421622869214,0.7547650828783605,0.7276302963180383,0.674962639184951,0.6016243988363461,0.5158293977169998,0.42540212978717656,0.3366500969484778,0.254594199567158,0.1829687364744708,0.12422140496643605,0.0795133008039218,0.04871891821253976,0.03042614988281614,0.02193629036652761,0.019264332252241802,0.019643253166158534,0.023066492379882435,0.028711752542520126,0.035876448453007456,0.04397788854082613,0.052553274865976767,0.06125970311899668,0.06987416262094955,0.07829353632344793,0.08653460080861998,0.09473402628913163,0.10297531194787458,0.11111607792269776,0.11914599968734688,0.12705723735948754,0.13484210296174212,0.14249306042170945,0.15000272557193528,0.15736386614993222,0.16456940179817006,0.17161240406409425,0.178486096400098,0.1851838541635412,0.19169920461674092,0.19802582692698906,0.2041631272201933,0.2101092691878901,0.21585568491062698,0.22139425363333848,0.2267173049414248,0.23181761876073007,0.23668842535755738,0.2413234053386623,0.24571668965126386,0.24986285818883439,0.2537564726411499,0.25739139830258273,0.2607617786167935,0.2638622073678917,0.2666877286804437,0.26923383701947007,0.2714964771904503,0.2734720443393148,0.2751573839524503,0.2765497918566982,0.27764709328386855,0.2784478930607711,0.27895133204985156,0.27915700145421,0.2790649428174007,0.2786756480234335,0.2779900592967733,0.27700956920234066,0.27573602064550917,0.27417170687210984,0.2723193714684277,0.2701822083612043,0.2677638618176327,0.26506466749869834,0.26207872559077583,0.25880832171409374,0.25525638974015924,0.2514260925953619,0.24732082226096427,0.24294419977310597,0.23830007522279373,0.23339252775591748,0.22822586557323896,0.22280462593039907,0.21713357513790288,0.21121770859691286,0.20506257876285208,0.19867509628064878,0.1920626436388271,0.1852328323807986,0.1781935031048451,0.17095272546412435,0.16351879816667295,0.15590024897538868,0.14810583470805866,0.14014454123733977,0.13202558349076915,0.12375840545074397,0.11535268015455115,0.10681830969434745,0.09816542521717057,0.08940438692491645,0.0805457840743726,0.07160043497719558,0.06257938699992298,0.05349391656395044,0.044352956473088866,0.03515302132223293,0.025902257229051023,0.016610911943021243,0.007289040395426834,-0.002053495300666532,-0.0114070258503998,-0.02076207477714236,-0.030109358422458828,-0.03943978594613135,-0.048744459326148064,-0.05801467335872656,-0.06724191565827882,-0.07641786665743476,-0.08553439960703035,-0.09458358057613063,-0.10355777962922884,-0.11245010346307899,-0.12125401760750591,-0.12996318045151606,-0.13857144320231163,-0.14707284988531225,-0.15546163734414414,-0.16373223524066122,-0.17187926605491347,-0.17989754508516814,-0.18778208975236374,-0.19552831451165423,-0.20313202555890889,-0.21058923015375527,-0.21789612837403327,-0.22504911311578973,-0.23204477009329738,-0.23887987783902695,-0.24555140770366574,-0.25205652385610894,-0.258392583283476,-0.264560231087477,-0.27056013309541815,-0.27638472668287967,-0.2820268211520178,-0.28747980585609206,-0.29273765019948034,-0.29779490363767197,-0.3026466956772803,-0.30728873587602357,-0.31171731384273804,-0.3159292992373715,-0.31992214177099454,-0.32369387120578424,-0.3272430973550347,-0.33056901008315287,-0.3336713539126019,-0.3365502751264444,-0.339206423676876,-0.34164102927637874,-0.3438559016885542,-0.34585343072811353,-0.3476365862608841,-0.3492089182038068,-0.35057455652494024,-0.35173821124345434,-0.3527051724296346,-0.3534813102048807,-0.35407307474170835,-0.35448749626374626,-0.354732185045738,-0.35481533141354193,-0.35474570574413106,-0.3545326584655926,-0.35418612005712863,-0.35371700746675977,-0.35318219033186177,-0.35260982441707134,-0.35199149725716294,-0.3513197307191265,-0.3505879810021671,-0.3497906386377041,-0.3489230284893732,-0.34798140975302466,-0.3469629759567248,-0.3458658549607533,-0.3446891089576065,-0.34343273447199574,-0.342097662360848,-0.34068575781330324,-0.33919982035071894,-0.3376435838266669,-0.33602174729900375,-0.334340263990221,-0.33260621065036167,-0.33082760082689566,-0.3290133823995092,-0.3271734375801003,-0.32531858291278565,-0.32346056927389555,-0.32161208187197715,-0.3197867402477891,-0.317999098272095,-0.3162645794761657,-0.31459930778129774,-0.31302028856006847,-0.31154546151727336,-0.3101937006899222,-0.30898481444724035,-0.30793954549066666,-0.30707453744445773,-0.30634496013778445,-0.30571097271709213,-0.3051448297197211,-0.3046216461578603,-0.3041193975185446,-0.3036189197636566,-0.3031039093299245,-0.3025609231289245,-0.30197937854707946,-0.30135155344565956,-0.3006725861607804,-0.299940475503406,-0.29915608075934685,-0.29832312168926095,-0.29744817852865124,-0.2965406919878695,-0.2956129632521139,-0.29468011203265254,-0.2937594436456633,-0.2928705791197112,-0.2920563904955045,-0.29241420932924334,-0.294172812353162,-0.2968329063010643,-0.2999439104477185,-0.30310395660886114,-0.3059598891411941,-0.30820726494239187,-0.3095903534510909,-0.3099021366468966,-0.30898430905038304,-0.30672727772308883,-0.3030701622675218,-0.29800079482715663,-0.2915557200864402,-0.283820195270773,-0.27492819014653574,-0.2650623870210724,-0.2544541807427012,-0.2433836787006867,-0.23217970082528178,-0.22121977958769923,-0.21200094932307378,-0.20440853510291593,-0.19568682844152455,-0.18340436747370278,-0.16547104215799402,-0.14013809427663182,-0.10599811743560836,-0.06198505706463244,-0.007374210417177876,0.05821777342966285,0.13483289357497047,0.22217176596165322,0.31984567064142905,0.4271921463220069,0.5345192586610632,0.6319995304057022,0.7118597092669201,0.7683807679197971,0.7978979040031875,0.7988005401199377,0.771532323836831,0.7185911276846276,0.6446643944149008,0.5577813834056549,0.4664206364401215,0.37749721998137287,0.29635239006276937,0.2267535922883063,0.17089446183237994,0.12939482343986888,0.10130069142603684,0.08408426967669044,0.07430025024620981,0.07049861022315365,0.07129855894575388,0.07543998785187662,0.08185342170276252,0.08966001858302625,0.09817156990067631,0.10689050038708564,0.1155098680970104,0.12391336440858071,0.13217531402332083,0.14054502568164298,0.14893919966003502,0.15722642728036323,0.16539613657494223,0.17343802030518163,0.18134266499386195,0.18910186575310123,0.19670774855903794,0.20415269228977923,0.211429328725419,0.2185305425480303,0.22544947134168156,0.2321795055924109,0.2387142886882434,0.24504915928146426,0.2511866850687672,0.2571195306294811,0.2628387934507578,0.268336035154158,0.2736032814956642,0.2786330223656602,0.2834182117889453,0.28795226792473017,0.29222907306663476,0.2962429736426993,0.2999887802153672,0.30346176748149584,0.3066576742723537,0.30957270355362626,0.31220352242540433,0.3145472621221934,0.3166015180129084,0.3183643496008812,0.3198342805238506,0.32101029855396856,0.32189185559779837,0.32247886769631745,0.32277171502491164,0.3227712418933807,0.32247875674593574,0.3218960307752019,0.3210250945913164,0.3198680237003802,0.3184273064096826,0.31670589516092174,0.31470720653021045,0.3124351212280717,0.309893984099443,0.30708527692866855,0.30400233263786186,0.3006475893610119,0.29702451886807335,0.29313686762009017,0.2889887358654309,0.2845844844346897,0.27992871199554,0.2750262550527219,0.2698821879480609,0.26450182286045504,0.25889070980588264,0.25305463663738653,0.24699962904509692,0.2407319505562164,0.23425810253502735,0.22758482418287634,0.22071909253819755,0.21366812247649802,0.20643936671036486,0.1990405157894473,0.19147949810048492,0.1837644798672881,0.17590386515074383,0.16790629584881997,0.159780651696545,0.15153605026603886,0.14318184696649258,0.13472763492217577,0.12618313096142272,0.11755796392274001,0.10886194271612555,0.10010511408865892,0.09129776262447899,0.08244209616154083,0.07353423984446772,0.06458328965628315,0.055598342283876064,0.046588287273956384,0.03756180703303255,0.02852737682742177,0.019493264783228385,0.010467531886377507,0.0014580319825923597,-0.007527588222594265,-0.016481889163863176,-0.025397638416074193,-0.03426781069428879,-0.04308558785375919,-0.05184435888995099,-0.060537719938508844,-0.06915947427527923,-0.07770363231629933,-0.08616441161781933,-0.09453623687626887,-0.10281373992827932,-0.11099175975067313,-0.11906534246048468,-0.12702974131492878,-0.13488041671142162,-0.14261303618757107,-0.15022347442119546,-0.15770781323029504,-0.16506234157307081,-0.17228355554791566,-0.17936799361862468,-0.18631173564357817,-0.19311090050664514,-0.19976181423188474,-0.20626100998354804,-0.21260522806609486,-0.21879182241557327,-0.2248209485995039,-0.23068587609151067,-0.23637861692083462,-0.24189178911059883,-0.24721861648050836,-0.25235292593832015,-0.2572891481723584,-0.26202231980924195,-0.2665480834694859,-0.27086268776749567,-0.27496298731157776,-0.27884644270392356,-0.28251112054062016,-0.28595569341164606,-0.2891794399008783,-0.2921822445860813,-0.2949645980389143,-0.2975275968249281,-0.2998729435035713,-0.30200294662818056,-0.30392052074598747,-0.3056291863981155,-0.30713307011958413,-0.308436904439303,-0.30954602788007557,-0.31046638495859796,-0.3112045261854609,-0.3117676080651466,-0.3121633930960306,-0.3124003644282559,-0.3124882713566618,-0.3124377049515463,-0.3122598625711668,-0.31199176544894247,-0.31169380467184016,-0.311358487639036,-0.3109765959604571,-0.3105400124114857,-0.3100417209329578,-0.30947580663116525,-0.30883745577785426,-0.30812295581022664,-0.30732969533093724,-0.3064561641080972,-0.3055019530752721,-0.3044677543314823,-0.30335536114120376,-0.30216766793436484,-0.3009086703063511,-0.2995834650180021,-0.2981982499956131,-0.2967603243309316,-0.29527808828116225,-0.29376104326896413,-0.29221979188245173,-0.2906660378751913,-0.2891125861662073,-0.2875733428399776,-0.28606331514643607,-0.28459861150096843,-0.2831964414844181,-0.28187511584308217,-0.28065404648871367,-0.2795537464985179,-0.27859583011515715,-0.27780290356221427,-0.27719686818639505,-0.2767463050728984,-0.2764020763090933,-0.2761337648532014,-0.27591385980070704,-0.2757177563843567,-0.2755237559741609,-0.275313066077392,-0.27506980033858625,-0.2747809785395416,-0.27443652664707097,-0.2740293095850403,-0.27355518842951165,-0.2730129456891155,-0.27240427000974726,-0.27173375617456447,-0.27100890510398806,-0.2702401238557001,-0.2694407256246474,-0.2686269297430384,-0.2678178616803459,-0.2670355530433031,-0.26659072155926583,-0.26735841469114413,-0.26902927441007535,-0.2712212908329568,-0.27358923561627907,-0.275824661956117,-0.2776559045881351,-0.2788480797875862,-0.27920308536931365,-0.27855960068774693,-0.27679308663690494,-0.27381578565039744,-0.2695767217014167,-0.2640617798520647,-0.2572946263381006,-0.249336391290429,-0.2402849995585174,-0.23027515753143618,-0.21947835313784,-0.20820866170431623,-0.19705023867659083,-0.18610103954957463,-0.17511640287768424,-0.16353094202316037,-0.1504585451560388,-0.1346923752541929,-0.11528563324239019,-0.09289614846151234,-0.06244644795788264,-0.019600325336651066,0.03803848325269498,0.11092629911626714,0.19757950101597266,0.29473536093197045,0.40025911581476187,0.506321318186357,0.6040467465580935,0.6860301403079263,0.7463361996807036,0.7804995857880873,0.7855249206086203,0.759826194799299,0.7045197618458159,0.6286738335683268,0.5416886771205649,0.4514608203843282,0.3643830519692889,0.285344421213038,0.21773023818112494,0.16342209787552392,0.12279834498938665,0.09473290642435452,0.0764516898783116,0.06575654941804902,0.061225130487321054,0.06156935917327351,0.06563544220645437,0.07240386696082637,0.08098940145375094,0.0906410943459969,0.10074227494173242,0.11081055820361209,0.12049790147989582,0.12959058429375955,0.13800916758440998,0.14580849293447448,0.15317768256997022,0.16044013936032614,0.16804896042636633,0.175857651222136,0.18352406899647758,0.19104017592783723,0.19839808785237598,0.20559007426398848,0.21260855831427522,0.21944611681256088,0.22609548022588563,0.23254953267902206,0.2388013119544497,0.24484400949237173,0.2506709703907078,0.25627569340510803,0.26165183094893113,0.2667931890932587,0.27169541460947105,0.27636099607724657,0.28078330743259067,0.28495464278088156,0.288867795533701,0.29251606033848626,0.2958932330785162,0.2989936108729212,0.30181199207667814,0.30434367628061804,0.3065844643114153,0.3085306582315948,0.3101790613395304,0.3115269781694434,0.31257221449140665,0.313313077311339,0.31374837487100915,0.31387741664803426,0.3137000133558801,0.31321647694386145,0.31242762059714135,0.31133475873673305,0.3099397070194958,0.30824478233813923,0.3062528028212222,0.3039670878331531,0.3013914579741841,0.2985302350804215,0.29538824222381793,0.2919708037121777,0.2882837450891468,0.28433339313422656,0.28012657586276474,0.2756696294323399,0.27095655355586623,0.26598933176502226,0.2607740344519642,0.2553168714119629,0.24962408203477035,0.24370185511074532,0.23755650129630124,0.23119447202268245,0.22462235949594622,0.21784689669698837,0.21087495738152662,0.2037135560801093,0.19636984809809674,0.18885112951568922,0.1811648371879081,0.17331854876035577,0.165319987392961,0.157177028383151,0.1488976894706901,0.1404901291701736,0.13196264677100664,0.12332368233743658,0.11458181670853117,0.10574577149818461,0.09682440909512229,0.08782673266287865,0.07876188613983108,0.06963915423917773,0.06046796244894782,0.05125787703197967,0.042018605025954725,0.03275999424337461,0.023491829440034903,0.014211252163260687,0.004920258916630211,-0.004371763762939678,-0.013655667163845963,-0.022922540399823717,-0.03216371040991037,-0.04137074148049125,-0.05053529760938542,-0.059648952080878496,-0.06870346820923934,-0.07769084713406268,-0.08660332782025795,-0.09543338705807114,-0.1041737394630515,-0.11281733747607414,-0.12135737136332878,-0.12978726921634126,-0.1381006969519414,-0.14629155831228438,-0.1543539948648405,-0.1622823860024153,-0.1700713489431189,-0.17771573873038699,-0.18521064823297032,-0.19255140814495397,-0.19973358698572868,-0.2067529911000104,-0.21360566465783037,-0.2202878896545531,-0.22679618591085032,-0.23312731107271767,-0.23927826061146754,-0.24524626782374365,-0.25102880383149806,-0.25662357758200716,-0.26202853584786356,-0.2672418632269906,-0.2722619506323183,-0.27708541603342296,-0.281706161252234,-0.2861184827005717,-0.29031736110749823,-0.2942984615376248,-0.2980582333844526,-0.3015941445296218,-0.30490441688439723,-0.30798795667727114,-0.3108443544539718,-0.31347388507746,-0.31587750772793505,-0.31805686590282567,-0.3200142874167956,-0.32175278440174193,-0.3232760533067987,-0.32458847489833054,-0.3256951182136406,-0.326601777712549,-0.32731495655406534,-0.32784184253472,-0.32819030776827773,-0.32836890868573737,-0.3283868860353319,-0.3282541648825279,-0.32798135461002564,-0.3275797489177602,-0.3270613258228994,-0.32643874765984565,-0.3257253610802354,-0.3249351970529393,-0.3240829708640604,-0.3231840821169371,-0.32225461473214156,-0.32131133694747993,-0.32037170131799103,-0.3194550220402514,-0.3186377287846224,-0.3179458961652547,-0.31736449277562817,-0.3168792368088079,-0.3164765583834648,-0.3161434584387053,-0.31586763453652716,-0.31563753383025933,-0.315442353072814,-0.31527203861668746,-0.3151172864139597,-0.31496954201629423,-0.31482100057493884,-0.31466460684072467,-0.31449405516406703,-0.3143037894949647,-0.31408900338300033,-0.31384563997734055,-0.3135703920267357,-0.31326070187951965,-0.3129147614836104,-0.31253151238650967,-0.31211064573530306,-0.3116526022766594,-0.311158572356832,-0.3106304959216576,-0.3100710625165572,-0.30948371128653474,-0.30887263097617845,-0.3082427599296606,-0.30759978609073724,-0.3069501470027473,-0.30630102980861446,-0.3056603712508459,-0.3048792153780188,-0.30358402639421506,-0.30196507667343536,-0.30022470998885514,-0.29853711022909235,-0.29704830139820343,-0.2958761769144533,-0.2951106695892747,-0.2948136353335168,-0.2950187704468513,-0.295731611344392,-0.29692953455669413,-0.2985617567297531,-0.30054933462500943,-0.3027851651193421,-0.30513398520507257,-0.3074323719899625,-0.3094887426972195,-0.3110833546028507,-0.3119682948411281,-0.31186746910788954,-0.31010293693410884,-0.3056296047968462,-0.2990631926416974,-0.2910239665006029,-0.28201501067307777,-0.2724222277261886,-0.2625143384945884,-0.2524428820804935,-0.2422422158536958,-0.23182951545153668,-0.22100477477894628,-0.2094508060084169,-0.19673323958001884,-0.18322346916753407,-0.1709206215715464,-0.15454449051487373,-0.12918816682521522,-0.09137523616259971,-0.03905977901948069,0.0283736292793203,0.11010991857654356,0.20390359696985105,0.30607940889521773,0.4115320249107979,0.5137256257934633,0.6046938974879007,0.6748706579411188,0.7156061024640253,0.7268066430480004,0.7104674725028844,0.6695112878905582,0.6077882905249867,0.5300761859722574,0.44208018405037186,0.35043299882954604,0.2626948486320214,0.18730546172640203,0.12802156595600908,0.08268574894186205,0.04962898581479822,0.027185287601501955,0.013691701224454709,0.007488309502019332,0.006918231148376768,0.010327620773541258,0.016065668883371517,0.022812446334568203,0.030304746084786033,0.038317989912914345,0.04665610863947207,0.05515832749487308,0.06369916611939339,0.07218843856319307,0.08057125328630534,0.08882801315865761,0.0969744154600402,0.10505968434265832,0.11307363198637828,0.12098260516737848,0.12877639441115601,0.13644491931924324,0.14397826175181405,0.15136666582770203,0.15860053792437157,0.16567044667793832,0.17256712298315946,0.17928145999344955,0.18580451312085697,0.1921275000360803,0.19824180066845895,0.2041389558514651,0.2098106566877368,0.2152487502794077,0.22044524593290876,0.22539513735965225,0.23009691105852156,0.234541480746364,0.23871985428311943,0.24262352548494348,0.24624447412419356,0.249575165929438,0.2526085525854523,0.25533807173322576,0.25775764696995057,0.2598616878490297,0.26164508988007396,0.26310323452890566,0.2642319892175525,0.2650277073242521,0.2654872281834506,0.265607877085803,0.2653874652781728,0.264824289963632,0.26391720630210846,0.26266742409421506,0.2610786341726732,0.25915511063929375,0.25690161355209584,0.2543233889253088,0.251426168729366,0.24821617089091386,0.24470009929280578,0.2408851437741064,0.23677898013008236,0.23238977011221532,0.22772616142819327,0.22279533988663602,0.2175942457544754,0.21212883380622752,0.20640714781244085,0.20043737266477002,0.19422783437596222,0.1877870000798794,0.18112347803148324,0.17424601760684266,0.16716350930311843,0.15988498473858645,0.15241961665262183,0.14477671890570878,0.13696574647942036,0.12899629547644637,0.12087810312057724,0.11262104775671018,0.10423514885083147,0.09573056699004605,0.08711760388255728,0.07840670235767676,0.06960844636580445,0.060733560978459035,0.05179288785230349,0.042796167523429136,0.033751477884677736,0.024666896189488183,0.015550640812397489,0.006411071249052295,-0.0027433118838154154,-0.011903866848351907,-0.021061810785606715,-0.030208790775782375,-0.039348096411728616,-0.04847622915690679,-0.057585057671224814,-0.06666667003066902,-0.07571335795068657,-0.0847176032987029,-0.09367210433834894,-0.10256977890633374,-0.11140376441243144,-0.12016741783950476,-0.12885431574347114,-0.13745825425332464,-0.14597324907112516,-0.15439353547202114,-0.1627135683042153,-0.17092802198898738,-0.17903179052068358,-0.18701998746673693,-0.19488794596763612,-0.2026312187369467,-0.2102455780613006,-0.21772701580041579,-0.22507174338706712,-0.23227619182710554,-0.23933701169944882,-0.24625107315610023,-0.25301546251877377,-0.2596270336769676,-0.2660819597335315,-0.2723765267081675,-0.27850724019363604,-0.28447082535577367,-0.2902642269334844,-0.29588460923875476,-0.30132935615663153,-0.30659607114523674,-0.31168373323134574,-0.31659256821158965,-0.32131570439624996,-0.32584627105932057,-0.3301780869628073,-0.334305660356739,-0.3382241889791505,-0.34192956005609426,-0.3454183503016352,-0.3486878259178594,-0.35173594259486085,-0.3545613455107505,-0.357163369331654,-0.3595420382117096,-0.3616980657930756,-0.3636328552059197,-0.36534849906842565,-0.3668477794867914,-0.36813416805523225,-0.3692118258559748,-0.3700856034592618,-0.37076104092334966,-0.3712443677945113,-0.3715425031070325,-0.37166305538321437,-0.3716143226333722,-0.37140529273340334,-0.37104592428939465,-0.37054764522817896,-0.3699227070225024,-0.3691840506331247,-0.36834530650882125,-0.36742079458638177,-0.3664255242906109,-0.3653751945343267,-0.3642861937183631,-0.3631755997315684,-0.3620611799508057,-0.36096139124095145,-0.359914513928408,-0.3589920807032463,-0.3581876669883782,-0.35748905122904456,-0.3568846219585579,-0.35636337766937687,-0.35591492681310766,-0.3555294878005025,-0.35519788900146115,-0.35491156874503044,-0.3546625753194038,-0.3544435669719216,-0.3542478119090712,-0.3540691882964871,-0.35390218425895054,-0.35374189788038957,-0.35358403720387926,-0.35342492023164196,-0.35326147492504634,-0.3530912392046086,-0.3529123609499914,-0.35272359800000447,-0.3525243181526047,-0.3523144991647721,-0.3520943063924431,-0.35186285927205924,-0.35161948145404986,-0.351364106547991,-0.3510972781226051,-0.35082014970576275,-0.3505344847844803,-0.3502426568049222,-0.34994764917239857,-0.349653055251367,-0.34936307836543234,-0.34908068590923247,-0.3483344511882243,-0.34697479942243503,-0.3452912258444205,-0.3435354637140802,-0.3419214843186531,-0.34062549697272554,-0.3397859490182248,-0.3395035258244222,-0.3398411507879309,-0.340823985332708,-0.3424394289100538,-0.34463711899860994,-0.347328931104365,-0.3503889787606469,-0.35365361352812785,-0.35692142499482166,-0.3599532407760899,-0.36247212651463256,-0.36416338588049396,-0.3646745605710615,-0.3636154303110666,-0.36055801285258215,-0.3549997718476348,-0.34702987825108084,-0.3375086015528484,-0.32714393380438644,-0.3164523052952629,-0.3057579652364177,-0.2951929811489426,-0.2846972388641229,-0.27401844252340957,-0.26271211457842625,-0.25014159579097733,-0.23549101179931548,-0.2195076390051559,-0.19958573324424667,-0.17154668827400762,-0.132354229684183,-0.08011436821912066,-0.014075370120260687,0.06537217291312497,0.1566953366582523,0.257300453701578,0.3644141572768156,0.4691047878894965,0.5620834804821084,0.6360587106225216,0.685736294504266,0.7078193889464588,0.7010084913938394,0.6660014399166859,0.605582720157723,0.5265055611422087,0.43754975173921945,0.34623167938791954,0.2586777044987298,0.17962416045342136,0.11241735360491886,0.05901356327760765,0.019979041767121116,-0.005509909280326226,-0.019666398262686867,-0.026093262106483318,-0.028451028514568336,-0.027004730102895086,-0.022657409698210406,-0.01625725133556427,-0.008518876272732331,-2.3342990221706045e-05,0.008781852808751333,0.017582778198229117,0.026199063029533044,0.03458389993125384,0.04282404430927259,0.05111947576717052,0.059384951735088086,0.0675352398119294,0.07556181231556794,0.08345630790994606,0.091210531605044,0.0988164547569001,0.10626621506760153,0.11355211658530283,0.12066662970419754,0.127602391164537,0.13435220405262183,0.14090903780081873,0.14726714587258719,0.15342741629340062,0.15938238902925278,0.16512305746230863,0.17064085176088845,0.17592763887948226,0.18097572255874364,0.18577784332550218,0.19032717849274372,0.19461738095433384,0.19864301012493407,0.2023993744055929,0.20588222461361608,0.20908774835247798,0.2120125700118174,0.21465375076744578,0.21700878858133443,0.21907561820162363,0.22085261116261853,0.22233857578479452,0.22353275717478938,0.22443483722540894,0.2250449346156247,0.22536358970343318,0.22539168094918383,0.22513048397819865,0.22458171109504002,0.22374751139043517,0.22263047074127945,0.22123361181063328,0.21956039404772562,0.21761471368794782,0.21540090375286117,0.2129212956526264,0.21017173702505534,0.20715504490218362,0.20387496541435995,0.20033549988537716,0.19654090483246522,0.1924956919662958,0.18820462819097103,0.18367273560404,0.17890529149648787,0.17390782835274196,0.16868613385065875,0.16324621163531527,0.1575935625526963,0.15173325704096058,0.14567059602946375,0.13941113564101096,0.13296068719184342,0.1263253171916447,0.11951134734352425,0.11252535454404382,0.10537417088319907,0.0980648836444296,0.09060483530459953,0.08300162353402572,0.07526310119645949,0.06739737634909591,0.05941281224255354,0.05131802732090507,0.04312189522165693,0.03483354477575976,0.026462360007586762,0.01801798013496628,0.009503423616476925,0.0009163501000002427,-0.007734842473148831,-0.016441749244779355,-0.025196141843901326,-0.033989968386713344,-0.04281535347662625,-0.0516645982042289,-0.06053018014730996,-0.06940475337084766,-0.0782811484270326,-0.08715237235523232,-0.09601160868201515,-0.1048522174211389,-0.11366773507357304,-0.12245185783002041,-0.13119788094619006,-0.13989856708348328,-0.14854681191245753,-0.15713568759088184,-0.1656584427637033,-0.17410850256306964,-0.18247946860831782,-0.19076511900599585,-0.19895940834983045,-0.20705646772074848,-0.21505060468686674,-0.22293630330351205,-0.23070822411319064,-0.23836120334636302,-0.24589021445695977,-0.25329035105923126,-0.26055687890279855,-0.2676852402244825,-0.2746710537482945,-0.2815110134419054,-0.28820987947732835,-0.2947616641690497,-0.3011574613873248,-0.3073888921687498,-0.3134481047162366,-0.31932777439902893,-0.32502110375269566,-0.3305218224791443,-0.33582418744659936,-0.34092298268961757,-0.3458135194090806,-0.35049163597220717,-0.354953697912535,-0.3591965979299333,-0.3632177558905966,-0.3670151220912991,-0.370587417890301,-0.3739343004136816,-0.3770559929344377,-0.3799532458919002,-0.38262733689172207,-0.3850800707058865,-0.3873137792727034,-0.3893313216968149,-0.391136084249187,-0.39273198036711543,-0.39412345065422383,-0.3953154628804635,-0.39631351198211573,-0.397123620061788,-0.3977523363884164,-0.3982067373972651,-0.39849442668992696,-0.39862353503432246,-0.39860272036470007,-0.39843704414065056,-0.39812619901012053,-0.39768208002482147,-0.39711721221144,-0.3964440555795712,-0.39567500512171716,-0.39482239081328957,-0.3938984776126077,-0.3929154654608999,-0.3918854892823006,-0.39082061898385445,-0.38973285945551356,-0.38863415057013917,-0.3875363671834984,-0.3864513191342688,-0.38539075124403543,-0.38436634342681164,-0.3833897380419761,-0.38247257593267986,-0.3816264418734008,-0.3808628556215253,-0.3802031286618954,-0.37978558307337457,-0.37959623949179827,-0.3795690089568497,-0.3796445141360427,-0.379770089324722,-0.37989978044606276,-0.3799943450510712,-0.38002125231858414,-0.37995468305526886,-0.37977553399021463,-0.3794714377323633,-0.37903674702309775,-0.37847252624080596,-0.3777865513917064,-0.3769933101098488,-0.37611400165711206,-0.37517653692320735,-0.374215538425676,-0.37327234030989004,-0.37239498834905294,-0.3716382399441969,-0.37102881893785966,-0.3705019240600755,-0.3699986091647245,-0.3694700680887481,-0.36887740014755255,-0.3681916101350076,-0.36739360832344736,-0.36647421046366796,-0.3654341377849313,-0.36428401695214185,-0.3630442287692422,-0.3617445686613706,-0.3604246381913021,-0.3591339444002747,-0.35793189980799106,-0.35688782241261535,-0.35608093569077787,-0.3556003685975719,-0.3555451555665548,-0.3560242365097471,-0.3571564568176339,-0.3588949601083123,-0.35984605698511646,-0.3598423779472475,-0.3590559320363198,-0.3576256672541967,-0.35565747056299124,-0.3532241678850606,-0.3503655241030137,-0.3470882430597065,-0.34336596755824583,-0.3391392793619791,-0.33431569919450893,-0.32876968673968404,-0.3223426406416056,-0.3148428985046103,-0.30604573689329484,-0.29569337133250057,-0.28349495630732513,-0.26912658526309063,-0.2522312906053897,-0.2324190437000562,-0.20926675487317192,-0.17997023546357863,-0.13944748326456238,-0.08571388514262818,-0.01805618978753723,0.06297970845840765,0.15558927743945936,0.25670955219327385,0.36201913496946325,0.4659381952294831,0.5616284696468992,0.6409180095460738,0.6957918506212742,0.7231776192185149,0.7222948637708568,0.6940943457172426,0.641258039502587,0.5681991325778,0.48106202558572014,0.38772233902512504,0.2977744175153572,0.21849781258308984,0.15110898867927192,0.0961820275743586,0.05374575024175028,0.023283716857862586,0.003734226802056077,-0.006509681343246868,-0.009600229792648034,-0.008234450063082608,-0.004434820018237811,0.0013323571247128244,0.008471858258366402,0.01648639559903288,0.024976616686755965,0.03364110438528197,0.04227637688207987,0.05077688768833184,0.059135025638953786,0.06744077523240022,0.0757094176182807,0.08386558925939158,0.09190146576030306,0.09980938393882,0.10758184094619491,0.11521149426712256,0.12269116171973558,0.13001382145562304,0.13717261195980202,0.1441608320507369,0.15097194088032995,0.15759955793393862,0.1640374630303501,0.17028016360783924,0.17632932459612943,0.18217937312074653,0.18782211606701768,0.19324979702099992,0.19845509626947358,0.20343113079995484,0.20817145430067618,0.21267005716059958,0.21692136646941051,0.2209202460175293,0.22466199629609343,0.22814235449696954,0.2313574945127492,0.2343040269367558,0.23697899906303235,0.23937989488635064,0.2415046351022074,0.24335157710682961,0.24491951499716577,0.24620767957089248,0.2472157383264124,0.2479437954628551,0.2483922795131799,0.24856096981109693,0.24844947398343203,0.2480578296564082,0.2473865111569759,0.2464364295128106,0.24520893245231618,0.2437058044046191,0.24192926649957489,0.2398819765677646,0.23756680395147137,0.23497888475576004,0.23211638368824758,0.22898142506717747,0.22557637054666183,0.22190381984322063,0.21796661356551125,0.21376783074442848,0.20931078774700376,0.20459903827613893,0.19963637337059173,0.1944268214049962,0.1889746480898492,0.18328435647151856,0.17736068693222592,0.17120861719007172,0.16483336229901802,0.15824037464889812,0.15143534396539884,0.14442419731008568,0.1372130990803865,0.12980845100960045,0.12221689216687842,0.11444529895725213,0.10650078512161473,0.09839070173673094,0.09012274702691865,0.08170648667318363,0.07315297195311635,0.06447352321031981,0.055679698124246696,0.04678329171023226,0.03779633631947285,0.028731047502797268,0.01958904853094658,0.010373884579151825,0.0010967268185463875,-0.00823143544734312,-0.017599794782618906,-0.026997725618979406,-0.03641478425574092,-0.045840708859826065,-0.05526541946578746,-0.06467901797577338,-0.07407178815954922,-0.08343419565448798,-0.09275688796559219,-0.10203069446545904,-0.11124662639430463,-0.12039587685995158,-0.1294698208378516,-0.1384600151710523,-0.14735819857021923,-0.15615629161363057,-0.16484639674717114,-0.17342079828435478,-0.18187196240629147,-0.19019253716170886,-0.19837535246694227,-0.20641342010595456,-0.2142999337303056,-0.22202826885917315,-0.22959205023297197,-0.23698674882007376,-0.2442097484659027,-0.2512586955733968,-0.25813141841310233,-0.2648259271231912,-0.2713404137094342,-0.2776732520452196,-0.2838265585614061,-0.2898036556237179,-0.2955982529163734,-0.3012043021629876,-0.30661629866675216,-0.31182928131045035,-0.3168388325564345,-0.3216410788869321,-0.3262327029110347,-0.33061094487791803,-0.3347735893604923,-0.3387189645112522,-0.34244594206226925,-0.3459539373252031,-0.34924290919128653,-0.35231336013133463,-0.355166336195741,-0.35780342701448603,-0.36022676579712365,-0.36243902933279054,-0.3644434379902024,-0.3662437557176594,-0.3678442900430374,-0.36924989207379477,-0.37046595649696856,-0.3714984215791794,-0.372353769166625,-0.37303902468508476,-0.37356173585679675,-0.37392898509119826,-0.37414697189334145,-0.37422233139287703,-0.3741622422990367,-0.37397442690063276,-0.37366715106605725,-0.3732466251254842,-0.3727096511015258,-0.37206694775162935,-0.3713311978306449,-0.3705148591497331,-0.3696301645763637,-0.3686891220343163,-0.36770351450367805,-0.3666849000208472,-0.3656446116785308,-0.364593757625746,-0.36354322106781684,-0.36250366026637937,-0.36148550853937783,-0.3604989742610667,-0.35955404086200765,-0.3586604668290738,-0.3578277857054469,-0.35706530609061865,-0.35638211164038824,-0.3557870610668662,-0.3552887881384716,-0.35489570167993306,-0.3546015318318487,-0.3540924481433229,-0.3532872679513701,-0.3522475208555798,-0.3510295245662681,-0.3496843849044828,-0.34825799853958334,-0.34679137876892796,-0.34532096356676323,-0.3438780519516561,-0.3424887310529018,-0.3411738761105259,-0.33994915047528035,-0.3388250056086494,-0.3378066810828456,-0.3368942045808115,-0.3360823918962169,-0.33536084693346313,-0.3347139617076799,-0.33412091634472657,-0.3335556790811918,-0.3329870062643927,-0.3323784393067493,-0.33168829479018075,-0.33076572900365125,-0.3295475708513276,-0.3281487469929962,-0.32667230396107055,-0.32520910605146647,-0.3238378353235982,-0.322624991600384,-0.32162489246824255,-0.320879673277094,-0.3204192871403586,-0.3202615049349593,-0.3204119153013198,-0.32086392464336455,-0.32159875712852043,-0.3225854546877146,-0.3237808770153758,-0.32512970156943305,-0.32656442357131926,-0.32800535592399366,-0.3293605797232102,-0.33052586030854,-0.3300181459698702,-0.3256534671260066,-0.31853594612151875,-0.30968432157451115,-0.2999337956856021,-0.2899360342379586,-0.28015916659727474,-0.2708877857117815,-0.26222294811222446,-0.254082173911899,-0.24619944680662603,-0.2381252140747636,-0.22922638657718655,-0.21868633875731622,-0.20550490864110083,-0.18849839783703276,-0.16629957153610292,-0.1373576585118645,-0.09993835112039291,-0.05212380530029535,0.008187359427245931,0.08300517430797709,0.1710012522042272,0.2682027070822692,0.37010695746662564,0.47172327029673067,0.5675727609265339,0.6516883931247623,0.7176149790748197,0.7584091793749466,0.7668254494592357,0.741987238030338,0.691057473134454,0.621243726276473,0.5392778810234043,0.45141605752311015,0.36343869055484984,0.2806505538755265,0.2078807602200319,0.14940792334150582,0.10612813386369274,0.07560887766000429,0.05554508163355472,0.043861636891472676,0.03871339874493504,0.03848518670915783,0.04179178450341527,0.04747794005102228,0.054618365479336246,0.0625177371851068,0.07072014752363548,0.07906438408783735,0.08749414381229097,0.09595938209877315,0.10441582286777723,0.11282495855853567,0.12115405012900843,0.12937612705590448,0.1374699873346501,0.14542019747941012,0.1532170925230771,0.16085677601729217,0.16834112003241453,0.175677765157541,0.18286624524125067,0.18988831717698446,0.1967346501615785,0.20339633139756827,0.20986479205056457,0.21613180724925074,0.22218951166326428,0.22803046826859238,0.23364761241747437,0.23903422344683017,0.24418392465666597,0.24909068331005355,0.25374881063314414,0.25815296181516245,0.2622981360084178,0.26617967632828615,0.2697932698532235,0.2731349476247591,0.2762010846475047,0.2789883998891415,0.2814939562804295,0.2837151607152025,0.28564976405037523,0.2872958611059337,0.2886518906649417,0.28971663547353843,0.2904892222409408,0.2909691216394399,0.29115649734387217,0.2910532955526855,0.29065863156161303,0.28997142036463897,0.2889909666232475,0.2877169646664258,0.28614949849065896,0.28428904175993547,0.28213645780574376,0.27969299962707544,0.27696030989041787,0.27394042092976373,0.270635754746606,0.26704912300994016,0.2631837473428778,0.25904339763136414,0.25463230804965975,0.24995510287434233,0.24501679604948215,0.23982279118665828,0.2343788815649485,0.22869125013093133,0.22276646949868983,0.21661150194979717,0.21023369943333847,0.2036408035658959,0.19684094563155716,0.189842646581898,0.1826548170360079,0.1752867572805042,0.16774815903416507,0.1600491101961142,0.15220008983516514,0.14421196668762812,0.13609599915731874,0.12786383531553877,0.11952751290110614,0.11109945932033405,0.10258087139121558,0.09396250060816703,0.08525397249221267,0.07646513790834576,0.06760568579680558,0.058685143173054566,0.049712875127812965,0.040698084827035394,0.03164981351192303,0.02257694049890014,0.01348818317964856,0.004392097021084887,-0.0047029477404361385,-0.013789014822408626,-0.02285850589298282,-0.031903987502439314,-0.04091818812581239,-0.04989399816291326,-0.05882446993829546,-0.06770281770127769,-0.07652241762593268,-0.0852768078111097,-0.09395968828040045,-0.10256492098216194,-0.11108652978950535,-0.1195187005003178,-0.12785578083722937,-0.13609228044763544,-0.14422287090369063,-0.1522423857023044,-0.16014582026516083,-0.16792833193868834,-0.17558523999407982,-0.18311202562728313,-0.19050433195902014,-0.1977583758817684,-0.20487692893757511,-0.2118553775262784,-0.21868607834583745,-0.22536180901667702,-0.23187576808170574,-0.23822157500630722,-0.24439327017835677,-0.2503853149081963,-0.2561925914286514,-0.26181040289502294,-0.2672344733851021,-0.2724609478991481,-0.27748638501568906,-0.2823076283567641,-0.28692182274519107,-0.2913265298297372,-0.2955197321816526,-0.2994998332946635,-0.3032656575849836,-0.3068164503912973,-0.3101518779747716,-0.3132720275190502,-0.3161774071302623,-0.31886894583701003,-0.321347993590377,-0.3236163212639244,-0.3256761206536971,-0.32753000447821473,-0.3291810083077588,-0.3306326240490032,-0.3318887955842004,-0.33295388877047366,-0.33383269038742625,-0.33452928078826244,-0.3350411338988754,-0.33537518064237953,-0.33554079549300536,-0.3355475734368025,-0.3354053299716393,-0.33512410110720275,-0.3347141433649989,-0.33418593377835265,-0.33355016989240793,-0.33281776976412675,-0.3319998719622907,-0.33110783556750006,-0.3301532401721745,-0.32914788588055083,-0.3281037922086073,-0.32703316340666494,-0.3259483814419925,-0.32486204627598997,-0.3237869783818783,-0.3227362187446964,-0.3217230288613026,-0.32076089074037256,-0.31986350690240245,-0.3191130884002954,-0.3185847488119577,-0.31822698957351214,-0.31799179039418674,-0.31783577595064005,-0.31772021588696203,-0.31761102481467357,-0.31747876231272676,-0.31729863292750493,-0.3170504861728226,-0.31671881652992523,-0.3162927634474896,-0.3157661113416236,-0.3151372895958665,-0.314409372561188,-0.3135900795559896,-0.31269177486610394,-0.31173146774479515,-0.31073081241275696,-0.3097161080581158,-0.30871829883642876,-0.3077729738706847,-0.3069203672513019,-0.3062035372306211,-0.3056120019881897,-0.305078175258871,-0.3045420638450197,-0.3039543109567952,-0.3032762643167001,-0.30248001974443767,-0.3015483188433673,-0.3004745386242791,-0.29926269150539736,-0.29792742531237776,-0.29649402327830937,-0.2949984040437112,-0.2934871216565366,-0.29201736557217095,-0.2906569606534326,-0.28948436717056947,-0.2885886808012646,-0.2880696326306326,-0.2880375891512198,-0.28861355226074004,-0.28981932529121646,-0.29133313191490356,-0.2929011626241173,-0.29429671543613206,-0.2953139379085657,-0.29576782713938493,-0.2954942297669041,-0.2943498419697839,-0.2922122094670329,-0.28897972751800693,-0.28457164092241183,-0.2789280440202929,-0.2720098806920501,-0.26379894435842827,-0.25429787798052617,-0.2435301740597716,-0.23154017463795676,-0.218393071297216,-0.20417490516004025,-0.18899256702991668,-0.17301937235640621,-0.15660432363197588,-0.13537807605932164,-0.10469308394444406,-0.06138115337790877,-0.003753442234799209,0.06839953982522073,0.15380793135810128,0.24972945031224836,0.3540534999708248,0.4600963202969485,0.5589355601045465,0.642975270333691,0.7059459040508762,0.7429043164489517,0.7502337648471251,0.7253805840674462,0.6708569494374108,0.5963470612187383,0.5107178740107319,0.421495093086979,0.3348631743956873,0.255665324559466,0.18740350087541874,0.13223841131497463,0.09098951452415419,0.06272156861936803,0.044906737912447266,0.035407798637586564,0.03232708834503092,0.03400004258234622,0.038995194894430006,0.046114176823526976,0.05439171790920802,0.0630956456883818,0.07172688570338628,0.08001948120266841,0.08794063548901693,0.09569066204580762,0.10369794311911028,0.1118930720666738,0.11997846630646948,0.12794463571772047,0.13578231297754323,0.1434824535609678,0.15103623574090727,0.15843506058817775,0.16567055197148955,0.17273455655746478,0.17961914381061034,0.18631660599333544,0.19281945816594398,0.19912044523055336,0.20521851884130468,0.2111108327303161,0.21678764512993137,0.222239694422043,0.2274581997716887,0.2324348611270661,0.23716185921952873,0.24163185556358374,0.24583799245690344,0.24977389298030725,0.2534336609977734,0.25681188115643483,0.25990361888658686,0.2627044204016748,0.26521031269830153,0.2674178035562254,0.26932388153836584,0.27092601599079275,0.2722221570427343,0.27321077234805724,0.2738909744732026,0.27426240258054946,0.2743251766176798,0.27407989731533244,0.27352764618740255,0.27266998553094124,0.2715089584261558,0.27004708873641053,0.2682873811082241,0.26623332097127256,0.26388887453838855,0.2612584888055622,0.25834620279306053,0.25514690947282975,0.25166156222606917,0.24789394259118872,0.2438480949114782,0.2395283263351191,0.23493920681517586,0.230085569109602,0.224972508781228,0.21960538419777728,0.2139898165318572,0.20813168976096397,0.20203715066746786,0.1957126088386364,0.1891647366666191,0.18240046934845341,0.17542700488605217,0.168251804086225,0.1608825905606625,0.1533273507259418,0.14559433380352985,0.13769205181976468,0.12962927960588433,0.12141509418554448,0.11305908692302369,0.10457121091499523,0.09596168229977364,0.0872409800205519,0.07841984582541583,0.06950928426731996,0.06052056270411968,0.0514652112985518,0.04235502301824385,0.03319633892944514,0.023986173102870722,0.014734616965947835,0.0054522624059684666,-0.0038505044262714914,-0.013163503116438886,-0.022476759103647985,-0.03178059650164103,-0.04106580506777181,-0.050323425381601755,-0.05954470375917732,-0.06872109225301898,-0.07784424865214475,-0.08690603648203461,-0.09589852500465398,-0.10481398921844275,-0.11364490985833722,-0.12238397339573631,-0.13102407203852467,-0.13955830373106082,-0.1479799721542,-0.15628258672526005,-0.1644598625980445,-0.17250572066283115,-0.18041428754639333,-0.18817989561196835,-0.19579717065748423,-0.20326176317399003,-0.21056997588002085,-0.21771832172916541,-0.22470351941149708,-0.2315224933535648,-0.23817237371841013,-0.24465049640554137,-0.2509544030509509,-0.25708184102711046,-0.2630343274682088,-0.2688125561906339,-0.2744091033241804,-0.27981702991377877,-0.2850300067337077,-0.29004231428760774,-0.2948488428084609,-0.2994450922586048,-0.30382717232972495,-0.30799180244286867,-0.3119363117484256,-0.3156586391261399,-0.31915733318510514,-0.3224315522637747,-0.3254810644299453,-0.32830624748076853,-0.3309080889427459,-0.33328818607173616,-0.33544874585294404,-0.33739258500092845,-0.3391231299595978,-0.34064441690221736,-0.3419610917313997,-0.34307841007910994,-0.34400223730666496,-0.3447390485047359,-0.3452958844356563,-0.3456797667965586,-0.3458978580770343,-0.34595791927474784,-0.3458683211167146,-0.34563804405930215,-0.34527667828822967,-0.3447944237185682,-0.3442415816545881,-0.34365690603442534,-0.3430309297450451,-0.34235523753309355,-0.3416224743272569,-0.3408263452382612,-0.33996161555887267,-0.33902411076389577,-0.3380107165101761,-0.33691936373259085,-0.3357488554289429,-0.33449892596160125,-0.3331703673670337,-0.3317650318637495,-0.3302858318522972,-0.328736739915266,-0.3271227888172819,-0.3254500715050136,-0.3237257411071684,-0.32195801093449455,-0.32015615447977686,-0.31833050541784297,-0.3164924576055591,-0.31465446508183254,-0.31283004206760684,-0.3110337629658686,-0.3092812623616431,-0.3075892350219964,-0.30597544654337067,-0.3044589734597821,-0.3030602065460723,-0.301800608067149,-0.3007027004699575,-0.299789693575514,-0.2990405056284757,-0.29840575533683655,-0.29785212365161046,-0.29734968571761106,-0.29687191087345044,-0.29639566265153894,-0.2959011987780853,-0.29537217117309716,-0.29479562595038067,-0.2941620034175409,-0.29346513807598035,-0.2927022586209011,-0.29187398794130354,-0.2909843431199873,-0.2900407354335485,-0.28905397035238395,-0.2880382475406882,-0.2870111608564551,-0.2859936983514751,-0.2850102422713391,-0.284088569055436,-0.28329928305589225,-0.2837551900885784,-0.2855303882200962,-0.28809920423934976,-0.290991442774062,-0.2937923862907736,-0.2961427950948495,-0.2977389073304686,-0.29833243898063083,-0.29773058041763256,-0.29579584645870993,-0.2924460185548793,-0.28765434061221257,-0.2814495343756052,-0.2739157994287594,-0.26519281319420807,-0.25547573093329995,-0.24501518574620987,-0.2341172885719114,-0.22316518562940682,-0.21880376587230052,-0.2217403584282672,-0.22630679141636603,-0.22768693284861907,-0.22191669063001807,-0.20588401255853875,-0.17732888643555864,-0.1348433767575122,-0.07787167784121041,-0.006710037375952419,0.07749325705613569,0.1727378779798246,0.2761714580269568,0.3840895899363353,0.4919358265540035,0.5943016808328268,0.6849266258327702,0.7566980947207872,0.8016514807710001,0.8092235000892504,0.7799312917979578,0.7239144200006125,0.650199353761886,0.5666498431688842,0.47996691933101465,0.3956888927551223,0.31819117799423996,0.25068613699878317,0.19522337578148363,0.15268978137740533,0.12280952184395388,0.10414404626081597,0.09409274081515803,0.08970526186970548,0.08959113617446784,0.09276561442417282,0.09836047784755858,0.10562403820737176,0.11392113780036252,0.12273314945730784,0.13165797654297784,0.1404100529561569,0.14882034312963469,0.15683634203022556,0.16452207515873746,0.17205809854999385,0.1797252392914247,0.18740332402122467,0.1949492023844472,0.20235397618240894,0.20960889749196085,0.21670536866550683,0.22363494233097597,0.230389321391841,0.23696035902710985,0.2433400586913422,0.24952057411462364,0.25549420930258376,0.2612534185363866,0.26679080637274777,0.2720991276439096,0.2771712878600504,0.2820041518675952,0.2865991622783777,0.29094841347384637,0.29504407740906824,0.2988788486767445,0.3024459445072207,0.30573910476847055,0.3087525919661073,0.3114811912433793,0.3139202103811764,0.31606547979801913,0.3179133525500674,0.31946070433111634,0.32070493347259804,0.3216439609435831,0.32227623035077557,0.3226007079385177,0.32261688431974794,0.3223247911711463,0.32172499393598836,0.32081858084937437,0.31960716278404094,0.31809287325035973,0.3162783683963406,0.31416682700762943,0.31176195050751015,0.30906796295689887,0.306089611054352,0.30283216413606173,0.29930141417585904,0.29550367578520403,0.29144578621320044,0.2871351053465864,0.2825725266451085,0.2777533196339012,0.27268353537370194,0.26736941193864017,0.2618167915847665,0.2560315484075865,0.25001971659628985,0.24378749043373732,0.23734122429646787,0.2306874326546813,0.22383279007226456,0.2167841312067742,0.20954845080944556,0.20213290372517362,0.19454480489254242,0.18679162934380397,0.17888101220489014,0.1708207486953918,0.16261879412858846,0.15428326391142919,0.14582243354454186,0.1372447386222127,0.12855877483241765,0.11977329795680178,0.11089722387068959,0.10193962854306234,0.09290974803659298,0.08381697850762235,0.07467087620616511,0.06548115747591637,0.056257698754227245,0.04701053657214069,0.037749867554367406,0.028475701669131333,0.019186556705373527,0.009892026126613478,0.0006014634249716972,-0.00867602567941585,-0.01793158323842142,-0.02715650911729965,-0.036341878555966586,-0.045478860040635984,-0.0545588697415408,-0.06357357160088672,-0.07251487733287569,-0.0813749464236943,-0.09014618613153619,-0.09882125148656877,-0.10739304529095499,-0.11585471811884314,-0.12419966831638775,-0.1324215420017174,-0.14051423306495667,-0.14847188316821516,-0.15628888174560832,-0.16395986600322612,-0.1714797209985186,-0.17884359360530477,-0.18604690853769104,-0.19308534216086884,-0.19995481861202466,-0.20665150980033073,-0.21317183540696288,-0.21951246288507412,-0.22567030745981212,-0.23164253212831104,-0.23742654765970692,-0.24302001259511458,-0.24842083324764289,-0.2536271637023879,-0.25863737448628416,-0.26344770977787196,-0.2680516392580955,-0.272443133637704,-0.2766168848219171,-0.28056837662621337,-0.28429434922069236,-0.28779250882111024,-0.29106128410373083,-0.2940998249392968,-0.29690800239301685,-0.29948640872457466,-0.30183635738812503,-0.3039598830322998,-0.3058597415001988,-0.30753940982939615,-0.30900308625193756,-0.3102556901943443,-0.3113028622776073,-0.3121509643171908,-0.31280707932303164,-0.31327901149954074,-0.3135752862455995,-0.31370515015456313,-0.3136785710142591,-0.31350623780698766,-0.3131995607095214,-0.31277067109310597,-0.3122324215234595,-0.311598385760772,-0.3108828587597071,-0.31010085666940046,-0.30926811683346117,-0.30840109778996927,-0.3075169792714788,-0.30663366220501614,-0.30576987916306353,-0.3049954365901621,-0.3043481502103328,-0.3038136655925242,-0.30337840495726787,-0.3030295106694204,-0.3027542656632399,-0.30254032882112947,-0.30237612942008707,-0.3022508733886929,-0.30215454330711,-0.30207789840708393,-0.30201247457194275,-0.3019505843365972,-0.30188531688754044,-0.301810538062848,-0.3017208903521786,-0.30161179289677303,-0.3014794414894546,-0.30132080857462956,-0.30113364324828623,-0.3009164712579963,-0.3006685950029129,-0.30039008564409003,-0.30008171956628565,-0.29974501182513463,-0.2993822537762321,-0.29899651342675704,-0.2985916354354701,-0.29817224111271534,-0.2977437284204181,-0.29731227197208737,-0.2968848230328144,-0.2964691095192733,-0.2960724686036645,-0.2956631290282546,-0.29519324019254345,-0.2946332172303471,-0.2939671591050397,-0.293192848609556,-0.2923217523663897,-0.29137905723969537,-0.29040427941612,-0.28945117292058065,-0.28858719358873036,-0.2878934810857817,-0.2874648589065055,-0.28740983437523326,-0.28785059864585494,-0.28892302670181924,-0.29079496462389837,-0.2936399107833732,-0.2968050471609555,-0.29956364100438093,-0.30132338417237853,-0.30162639313465983,-0.300149208971927,-0.2967027973758725,-0.2912325486491707,-0.28381827770548956,-0.27467422406948394,-0.264149051876797,-0.25272584987406765,-0.2410221314189004,-0.22983553299229945,-0.22148452631536555,-0.2147697067981477,-0.20700495034920482,-0.19583391135173675,-0.17923002266356758,-0.15549649561716866,-0.12326632001959323,-0.08150226415256553,-0.02949687477242653,0.03312752288980993,0.10641882512862462,0.19009514976375236,0.2835448526057584,0.38583516281912655,0.4926825538389002,0.59294207934202,0.6767989459056005,0.7370455219017898,0.7690813374979094,0.7709130846562166,0.74315461713408,0.6890269504839747,0.6143582590484372,0.5271324400631178,0.4356393062154125,0.3468965613408012,0.26629553072949197,0.1976011611267645,0.14295202073273736,0.10286029920244841,0.07621180724628242,0.06026593387957049,0.0514733339579557,0.048422078681257696,0.04969832589087384,0.054042810985741194,0.06040289303473382,0.06793255477666121,0.07599240262028878,0.08414966664430786,0.09217820059735476,0.10005848189800672,0.10797761163477627,0.11600191023473065,0.12394270904696189,0.13178992137880907,0.1395339123138341,0.14716539265781456,0.15467541506445148,0.16205512979826484,0.16929563899052055,0.17638835550599585,0.18332503793165406,0.19009779057666415,0.19669906347239074,0.20312165932779283,0.209364725252987,0.21542411957641502,0.2212895502653637,0.22695120209750305,0.23239973666086272,0.23762629235384883,0.24262248438523626,0.24738040477418086,0.2518926223502009,0.25615218275318974,0.2601526084334099,0.26388789865150397,0.267352529478478,0.2705414537957129,0.27345010129495956,0.27607437847834615,0.2784106686583673,0.2804558319578909,0.2822072053101563,0.28366260245877767,0.28482031395773755,0.28567910717139183,0.2862382262744676,0.2864973922520648,0.2864568028996547,0.28611713282308016,0.2854795334385569,0.2845456329726706,0.2833175366319901,0.28179785923591794,0.27998976410908755,0.27789690086022134,0.27552223987247887,0.2728600054581396,0.2699108561602848,0.2666777518773941,0.26316393129095167,0.2593729118654595,0.25530848984842897,0.2509747402703857,0.24637601694485772,0.24151695246839344,0.23640245822054953,0.23103772436389755,0.22542821984400985,0.21957969238948072,0.2134981685119124,0.20718995672662774,0.20066166929672924,0.19392020892896586,0.1869727571789881,0.1798267743854621,0.17248999967005138,0.16497045093744508,0.15727642487533888,0.14941649695444453,0.14139952142847062,0.13323463133415173,0.12493123849122888,0.11649903350245998,0.1079479857535979,0.0992883434134232,0.0905306334337222,0.08168566154929865,0.07276451231285046,0.06377147592591365,0.054703549880118024,0.04557070989443849,0.03638309445519108,0.027150637992980953,0.017883070882679184,0.008589919443434742,-0.000719494061348793,-0.010036051423978827,-0.01935083849249627,-0.02865514517066456,-0.0379404654179927,-0.047198497249699926,-0.05642114273674005,-0.06560050800579426,-0.07472890323926634,-0.08379884267530575,-0.09280304460777243,-0.10173443138625993,-0.11058612941608487,-0.11935146915830835,-0.1280239851297027,-0.1365974159027743,-0.14506570410575198,-0.15342299642260862,-0.16166364359302948,-0.16978220041243297,-0.17777342573196048,-0.18563228245849692,-0.19335393755463998,-0.20093376203872026,-0.2083673309847922,-0.21565042352265218,-0.22277902283781023,-0.2297493161715098,-0.23655769482071767,-0.24320479860701794,-0.24968987469121554,-0.25600442814195357,-0.262140495329277,-0.26809070749922886,-0.2738482907738269,-0.27940706615107885,-0.284761449504976,-0.28990645158550576,-0.2948376780186316,-0.2995513293063072,-0.3040442008264694,-0.3083136828330503,-0.3123577604559594,-0.31617501370109574,-0.3197646174503424,-0.3231263414615756,-0.326260550368651,-0.32916820296809585,-0.33185080144651474,-0.33431035762181227,-0.33654947017993264,-0.3385713326828083,-0.340379733568358,-0.34197905615048607,-0.34337427861908587,-0.3445709740400343,-0.3455753103551956,-0.34639405038242005,-0.34703455181554543,-0.34750476722439494,-0.347813244054778,-0.3479691246284907,-0.3479820839687616,-0.3478489476937425,-0.34757403000641196,-0.34717336330774273,-0.3466626689336014,-0.3460572911515401,-0.3453721564197383,-0.34462177330521404,-0.34382023248382226,-0.3429812067402578,-0.3421179509680528,-0.3412433021695787,-0.3403696794560434,-0.33950908404749436,-0.33867309927281725,-0.3378728905697363,-0.33711920548481217,-0.33642237367344585,-0.3357923068998758,-0.3352384990371789,-0.3347700260672694,-0.33439554608090116,-0.33412329927766526,-0.3339611079659918,-0.33391637656314854,-0.33399609159524163,-0.33420682169721583,-0.3344322279794328,-0.3344115379657768,-0.3341737900223965,-0.33375705669961264,-0.3331963386236293,-0.3325235644965327,-0.33176759109629267,-0.3309542032767623,-0.33010611396767775,-0.32924296417465687,-0.328381322979202,-0.32753468753869813,-0.3267134555178367,-0.32592470380491945,-0.32517230535705516,-0.32445705999518487,-0.32377669561613215,-0.3231258681926042,-0.3224961617731896,-0.32187608848236166,-0.3212510885204758,-0.3206035301637713,-0.319912709764369,-0.31915485175027397,-0.31830310862537403,-0.31732756096944054,-0.3162519300448216,-0.3154443810679777,-0.31494198065058665,-0.3146961479446446,-0.3146522146564594,-0.31474945623407724,-0.3149212687447905,-0.3150950459590816,-0.3151920944573302,-0.3151276333742275,-0.3148107943987767,-0.3141446217742937,-0.3130260722984051,-0.31134601532305084,-0.3089892327544821,-0.3058344190532647,-0.3017541812342705,-0.29661503886668855,-0.2902774240740186,-0.2825956815340775,-0.2734180684789794,-0.2626412698246142,-0.2513724402537658,-0.24024021220827935,-0.22922985777269733,-0.21808467901056514,-0.20630600600366733,-0.19315319685204327,-0.17764363767395386,-0.15855274260592989,-0.13441395380274057,-0.10156918830235885,-0.05487861142192695,0.006603710543503613,0.0825047804265049,0.17118897159360405,0.2697580279451932,0.374051063915788,0.47864456447364645,0.5768523851210168,0.6601818766946015,0.7202587540727159,0.7534262743414669,0.758112401855677,0.7346738477759147,0.6853960700684179,0.6144932735051846,0.5281084096639311,0.43431317692815763,0.3431080204869014,0.2636277037034524,0.1969187837933809,0.14315845504180508,0.10209345943256919,0.07300094565633118,0.054688469110416076,0.04549399189885858,0.04328588283238522,0.0454629110880536,0.04981968678326008,0.05591335852071722,0.06321930348538972,0.07129398064189046,0.0797797475201463,0.08840486021539049,0.09698347338818382,0.10541564026438159,0.1136873126351565,0.12187034085698671,0.13002222616989062,0.1380569719727527,0.14596354546812368,0.15373292254039703,0.16135622335005423,0.16882471233363353,0.1761297982037508,0.1832630339490895,0.19021611946098219,0.19698103381730667,0.20355009738908605,0.2099157904323764,0.2160707374793024,0.22200770733807246,0.2277196130929559,0.233205092735976,0.23846164502239334,0.24348013071964475,0.24825189524961727,0.252768771742302,0.2570230810357883,0.26100763167627483,0.26471571991805315,0.26814112972351817,0.27127813276316376,0.2741214996447139,0.27666695794863877,0.27891135219755625,0.28085205871066443,0.28248694151526615,0.2838143523467603,0.2848331306486493,0.2855426035725357,0.28594258597812394,0.2860333804332187,0.2858157772137258,0.28529105430365165,0.28446097739510456,0.28332779988829276,0.28189426289152614,0.28016359522121603,0.27813951340187276,0.2758262216661093,0.27322841195463954,0.27035126391627967,0.26720044490793987,0.263782109994644,0.26010076588202485,0.2561517526251413,0.251938899015066,0.24746771650555066,0.2427439320415389,0.2377734880591855,0.23256254248581573,0.22711746873997313,0.2214448557313762,0.21555150786093621,0.20944444502077977,0.2031309025941977,0.1966183314557057,0.1899143979709893,0.1830269786936303,0.17596363930906353,0.16873119554215946,0.16133657522330738,0.1537869216741185,0.14608959370736038,0.13825216562703246,0.1302824272282987,0.12218838379751662,0.11397825611226832,0.10566048044129835,0.09724370854454514,0.08873680767317281,0.08014886056949574,0.07148916546706663,0.06276723609059831,0.05399280165599673,0.04517580687039664,0.03632630547944424,0.02744273185055327,0.018526635657441618,0.00958702798356993,0.0006326496283655296,-0.008327974041928657,-0.017286533025101646,-0.026234932682939104,-0.035165293741294436,-0.04406995229005332,-0.05294145978309801,-0.06177258303839024,-0.07055630423787737,-0.07928582092757316,-0.08795454601752409,-0.09655610778177469,-0.10508434985843493,-0.11353333124964762,-0.12189732587578342,-0.13017063674480556,-0.13834730859716443,-0.14642152737225447,-0.15438769437350097,-0.162240426268331,-0.16997455508824516,-0.1775851282287348,-0.18506740844935457,-0.19241687387369058,-0.19962921798933203,-0.20670034964792955,-0.21362639306516518,-0.220403687820726,-0.22702878885836705,-0.23349846648584097,-0.2398097063749582,-0.24595970956156063,-0.25194589244549853,-0.2577672755766832,-0.26342473323327203,-0.2689109367481733,-0.2742184062398407,-0.2793403231648042,-0.28427053031771843,-0.28900353183134037,-0.29353449317651326,-0.29785924116220214,-0.301974263935475,-0.3058767109814881,-0.30956439312352163,-0.3130357825229409,-0.31629001267922874,-0.31932687842997076,-0.3221468359508455,-0.3247510027556464,-0.32714115769178265,-0.32931964052946494,-0.33128909262799944,-0.33305273615253017,-0.3346144546063125,-0.3359787928307042,-0.33715095700516234,-0.338136814647253,-0.3389428946126449,-0.33957638709510773,-0.34004514362651905,-0.34035767707685743,-0.3405231616542063,-0.34055143290475315,-0.3404529877127892,-0.34023898430070837,-0.33992124222901093,-0.3395274040883793,-0.3391219379172174,-0.3387028219585454,-0.3382618215119873,-0.33779147607212795,-0.33728507872785624,-0.3367367617647085,-0.3361415027259874,-0.33549512441275553,-0.3347942948838369,-0.33403652745582163,-0.3332201807030592,-0.3323444584576605,-0.33140940980950306,-0.3304159291062215,-0.3293657559532181,-0.3282614752136538,-0.3271065170084506,-0.32590515671629877,-0.32466251497364573,-0.32338462346218394,-0.3220786942189077,-0.32075289096255505,-0.3194162227133636,-0.31807854374932787,-0.3167505536062047,-0.3154437970775187,-0.31417066421455125,-0.3129443903263466,-0.31177905597971595,-0.31068958699922666,-0.3096917544672143,-0.3088021747237724,-0.3080383093667574,-0.30741576106171564,-0.306909936209097,-0.3064685975174307,-0.30604533429343317,-0.30560046534474267,-0.30510103897992424,-0.30452083300846466,-0.30384035474077503,-0.3030468409881931,-0.30213425806297795,-0.30110330177831257,-0.2999613974483077,-0.2987226998879929,-0.29740809341332763,-0.2960451918411915,-0.294668338489387,-0.2933186061766465,-0.2920437972226202,-0.29089844344788757,-0.28994380617394844,-0.28924787622322795,-0.28921115535190167,-0.29084674428726814,-0.29358167566264803,-0.29676776795728266,-0.29984046070144105,-0.3023188133450795,-0.30380550525787037,-0.30398683572918606,-0.302632723968101,-0.2995967091033954,-0.2948159501835457,-0.2883112261767501,-0.28018693597088246,-0.27063109837355687,-0.25991535211206196,-0.2483949558333829,-0.2365087881042538,-0.22477934741106864,-0.21517772776473634,-0.20906413234482296,-0.20316622091513536,-0.19452981981105655,-0.1806647725565053,-0.15954485211236752,-0.1296077211677611,-0.08975493212695576,-0.039351927109396084,0.021771962050050813,0.0933235138015751,0.17454561687980483,0.2642172703044121,0.36065358337988557,0.46170577569511556,0.5633193223399436,0.654301488710604,0.7257166284583997,0.7714504851526848,