0.215,-0.225,-0.235,-0.23,-0.23,-0.215,-0.21,-0.215,-0.24,-0.24,-0.23,-0.215,-0.215,-0.215,-0.24,-0.24,-0.235,-0.225,-0.205,-0.23,-0.25,-0.24,-0.235,-0.22,-0.22,-0.24,-0.24,-0.24,-0.225,-0.225,-0.215,-0.22,-0.235,-0.235,-0.225,-0.21,-0.21,-0.235,-0.235,-0.215,-0.225,-0.21,-0.215,-0.215,-0.225,-0.215,-0.205,-0.19,-0.205,-0.215,-0.225,-0.23,-0.22,-0.205,-0.215,-0.22,-0.245,-0.22,-0.21,-0.205,-0.2,-0.21,-0.215,-0.21,-0.19,-0.175,-0.165,-0.18,-0.175,-0.17,-0.17,-0.155,-0.155,-0.16,-0.16,-0.155,-0.135,-0.135,-0.145,-0.155,-0.16,-0.155,-0.155,-0.14,-0.16,-0.165,-0.185,-0.205,-0.21,-0.2,-0.195,-0.215,-0.225,-0.235,-0.215,-0.195,-0.19,-0.2,-0.205,-0.21,-0.205,-0.19,-0.205,-0.205,-0.215,-0.215,-0.185,-0.175,-0.165,-0.17,-0.185,-0.175,-0.19,-0.195,-0.225,-0.275,-0.3,-0.32,-0.31,-0.235,-0.1,0.11,0.48,0.915,1.35,1.73,1.975,2.09,2.005,1.68,1.1,0.46,-0.18,-0.455,-0.455,-0.37,-0.315,-0.335,-0.325,-0.36,-0.36,-0.345,-0.315,-0.255,-0.205,-0.165,-0.16,-0.155,-0.155,-0.13,-0.115,-0.12,-0.13,-0.135,-0.12,-0.105,-0.1,-0.1,-0.12,-0.1,-0.105,-0.09,-0.09,-0.1,-0.1,-0.11,-0.1,-0.085,-0.075,-0.09,-0.095,-0.08,-0.08,-0.08,-0.08,-0.065,-0.08,-0.095,-0.06,-0.065,-0.04,-0.045,-0.055,-0.055,-0.04,-0.035,-0.025,-0.04,-0.045,-0.04,-0.02,-0.005,0.01,-0.01,-0.015,-0.015,0.0,0.01,0.01,0.01,0.005,-0.005,0.02,0.05,0.055,0.055,0.05,0.055,0.07,0.1,0.11,0.1,0.1,0.11,0.135,0.145,0.175,0.165,0.17,0.19,0.21,0.24,0.26,0.245,0.265,0.285,0.31,0.335,0.36,0.37,0.38,0.425,0.44,0.47,0.495,0.515,0.54,0.555,0.59,0.625,0.66,0.665,0.7,0.72,0.755,0.785,0.805,0.815,0.825,0.855,0.885,0.905,0.92,0.925,0.92,0.915,0.92,0.91,0.88,0.85,0.8,0.765,0.71,0.665,0.615,0.56,0.475,0.425,0.375,0.33,0.28,0.2,0.14,0.1,0.07,0.04,-0.005,-0.025,-0.105,-0.115,-0.11,-0.13,-0.165,-0.175,-0.19,-0.23,-0.22,-0.215,-0.215,-0.235,-0.265,-0.265,-0.26,-0.26,-0.255,-0.275,-0.28,-0.285,-0.265,-0.26,-0.255,-0.28,-0.28,-0.285,-0.275,-0.265,-0.27,-0.275,-0.285,-0.285,-0.28,-0.275,-0.26,-0.265,-0.29,-0.28,-0.28,-0.265,-0.26,-0.265,-0.285,-0.275,-0.265,-0.265,-0.27,-0.275,-0.27,-0.27,-0.275,-0.26,-0.255,-0.26,-0.27,-0.275,-0.255,-0.26,-0.26,-0.27,-0.275,-0.285,-0.265,-0.255,-0.26,-0.29,-0.3,-0.29,-0.285,-0.265,-0.27,-0.305,-0.3,-0.295,-0.295,-0.275,-0.275,-0.285,-0.31,-0.305,-0.3,-0.29,-0.285,-0.3,-0.305,-0.335,-0.315,-0.29,-0.295,-0.31,-0.325,-0.325,-0.315,-0.305,-0.32,-0.315,-0.335,-0.32,-0.305,-0.3,-0.315,-0.32,-0.33,-0.345,-0.325,-0.32,-0.31,-0.33,-0.335,-0.34,-0.33,-0.315,-0.325,-0.33,-0.35,-0.34,-0.325,-0.31,-0.305,-0.335,-0.34,-0.335,-0.335,-0.32,-0.315,-0.32,-0.335,-0.345,-0.325,-0.31,-0.32,-0.335,-0.335,-0.345,-0.325,-0.315,-0.3,-0.32,-0.335,-0.33,-0.325,-0.305,-0.32,-0.325,-0.33,-0.35,-0.32,-0.325,-0.305,-0.32,-0.335,-0.32,-0.32,-0.305,-0.3,-0.3,-0.315,-0.29,-0.27,-0.255,-0.24,-0.255,-0.28,-0.265,-0.25,-0.24,-0.225,-0.235,-0.245,-0.26,-0.25,-0.245,-0.235,-0.255,-0.27,-0.28,-0.28,-0.285,-0.3,-0.315,-0.325,-0.345,-0.33,-0.315,-0.32,-0.315,-0.345,-0.32,-0.32,-0.305,-0.305,-0.31,-0.34,-0.33,-0.315,-0.295,-0.29,-0.32,-0.31,-0.325,-0.32,-0.29,-0.31,-0.305,-0.32,-0.35,-0.37,-0.38,-0.39,-0.4,-0.345,-0.21,0.055,0.435,0.89,1.325,1.675,1.935,2.03,1.97,1.635,1.02,0.38,-0.26,-0.625,-0.56,-0.475,-0.445,-0.475,-0.48,-0.48,-0.46,-0.43,-0.39,-0.365,-0.32,-0.285,-0.265,-0.265,-0.27,-0.285,-0.295,-0.27,-0.265,-0.265,-0.265,-0.285,-0.285,-0.26,-0.24,-0.25,-0.26,-0.28,-0.285,-0.24,-0.24,-0.24,-0.245,-0.255,-0.25,-0.235,-0.22,-0.215,-0.225,-0.24,-0.25,-0.215,-0.205,-0.2,-0.225,-0.23,-0.235,-0.225,-0.2,-0.19,-0.2,-0.22,-0.22,-0.205,-0.18,-0.175,-0.195,-0.21,-0.2,-0.185,-0.165,-0.16,-0.16,-0.175,-0.165,-0.145,-0.125,-0.12,-0.125,-0.12,-0.115,-0.1,-0.08,-0.07,-0.065,-0.07,-0.065,-0.05,-0.04,-0.015,0.01,0.005,0.02,0.05,0.075,0.09,0.11,0.105,0.125,0.16,0.195,0.21,0.22,0.235,0.275,0.3,0.34,0.365,0.395,0.405,0.43,0.46,0.51,0.54,0.555,0.57,0.59,0.63,0.67,0.69,0.705,0.715,0.735,0.755,0.77,0.78,0.765,0.725,0.695,0.66,0.625,0.595,0.52,0.455,0.37,0.33,0.265,0.205,0.14,0.05,-0.005,-0.05,-0.1,-0.135,-0.205,-0.245,-0.27,-0.3,-0.31,-0.33,-0.335,-0.37,-0.38,-0.385,-0.38,-0.395,-0.42,-0.43,-0.445,-0.435,-0.42,-0.425,-0.44,-0.455,-0.455,-0.445,-0.445,-0.43,-0.45,-0.46,-0.475,-0.455,-0.45,-0.45,-0.46,-0.46,-0.475,-0.455,-0.45,-0.445,-0.44,-0.455,-0.47,-0.455,-0.435,-0.435,-0.45,-0.47,-0.47,-0.45,-0.435,-0.45,-0.46,-0.465,-0.47,-0.465,-0.445,-0.435,-0.455,-0.46,-0.465,-0.465,-0.45,-0.45,-0.465,-0.48,-0.47,-0.47,-0.455,-0.455,-0.46,-0.485,-0.485,-0.485,-0.47,-0.465,-0.465,-0.49,-0.475,-0.47,-0.47,-0.475,-0.485,-0.505,-0.51,-0.49,-0.47,-0.48,-0.49,-0.5,-0.505,-0.495,-0.485,-0.485,-0.49,-0.52,-0.52,-0.495,-0.485,-0.48,-0.495,-0.505,-0.505,-0.505,-0.48,-0.47,-0.485,-0.5,-0.51,-0.495,-0.48,-0.485,-0.505,-0.515,-0.49,-0.49,-0.485,-0.495,-0.485,-0.5,-0.505,-0.505,-0.495,-0.48,-0.495,-0.5,-0.505,-0.505,-0.495,-0.485,-0.49,-0.5,-0.5,-0.49,-0.48,-0.475,-0.49,-0.505,-0.51,-0.505,-0.495,-0.475,-0.495,-0.51,-0.5,-0.495,-0.48,-0.48,-0.485,-0.5,-0.49,-0.5,-0.49,-0.48,-0.495,-0.51,-0.51,-0.49,-0.47,-0.46,-0.46,-0.475,-0.465,-0.44,-0.43,-0.42,-0.42,-0.45,-0.45,-0.425,-0.41,-0.39,-0.4,-0.42,-0.445,-0.44,-0.425,-0.39,-0.415,-0.43,-0.445,-0.45,-0.44,-0.445,-0.465,-0.485,-0.48,-0.475,-0.46,-0.45,-0.46,-0.485,-0.48,-0.475,-0.455,-0.46,-0.445,-0.465,-0.475,-0.47,-0.435,-0.43,-0.42,-0.43,-0.44,-0.43,-0.42,-0.43,-0.475,-0.53,-0.545,-0.545,-0.525,-0.46,-0.36,-0.12,0.255,0.75,1.235,1.605,1.845,1.895,1.725,1.295,0.655,0.015,-0.625,-0.745,-0.655,-0.6,-0.585,-0.58,-0.59,-0.58,-0.55,-0.49,-0.445,-0.41,-0.41,-0.415,-0.415,-0.395,-0.38,-0.38,-0.385,-0.39,-0.4,-0.38,-0.36,-0.36,-0.365,-0.375,-0.38,-0.365,-0.34,-0.335,-0.355,-0.36,-0.36,-0.345,-0.32,-0.325,-0.335,-0.345,-0.355,-0.325,-0.315,-0.31,-0.315,-0.32,-0.33,-0.325,-0.295,-0.315,-0.3,-0.315,-0.305,-0.29,-0.265,-0.27,-0.28,-0.3,-0.285,-0.265,-0.25,-0.245,-0.25,-0.25,-0.25,-0.235,-0.215,-0.2,-0.21,-0.21,-0.195,-0.19,-0.17,-0.155,-0.16,-0.19,-0.155,-0.125,-0.1,-0.1,-0.08,-0.085,-0.065,-0.05,-0.01,0.005,0.02,0.015,0.025,0.065,0.09,0.13,0.145,0.15,0.18,0.21,0.25,0.28,0.305,0.315,0.335,0.38,0.425,0.45,0.47,0.485,0.5,0.525,0.58,0.6,0.615,0.62,0.64,0.665,0.69,0.69,0.675,0.655,0.625,0.6,0.575,0.525,0.46,0.39,0.315,0.27,0.23,0.175,0.08,0.01,-0.05,-0.08,-0.115,-0.155,-0.2,-0.265,-0.285,-0.3,-0.31,-0.335,-0.365,-0.4,-0.405,-0.415,-0.415,-0.41,-0.435,-0.47,-0.465,-0.455,-0.46,-0.445,-0.465,-0.485,-0.5,-0.48,-0.47,-0.475,-0.485,-0.495,-0.5,-0.485,-0.485,-0.48,-0.485,-0.49,-0.495,-0.485,-0.475,-0.46,-0.465,-0.48,-0.495,-0.48,-0.475,-0.47,-0.465,-0.475,-0.47,-0.485,-0.455,-0.455,-0.46,-0.48,-0.49,-0.48,-0.445,-0.445,-0.45,-0.47,-0.475,-0.475,-0.45,-0.445,-0.455,-0.485,-0.475,-0.47,-0.47,-0.46,-0.465,-0.49,-0.49,-0.485,-0.475,-0.48,-0.485,-0.485,-0.485,-0.495,-0.48,-0.47,-0.475,-0.505,-0.5,-0.485,-0.48,-0.48,-0.5,-0.51,-0.505,-0.495,-0.485,-0.48,-0.495,-0.5,-0.495,-0.495,-0.48,-0.475,-0.505,-0.5,-0.51,-0.505,-0.495,-0.485,-0.485,-0.5,-0.495,-0.485,-0.48,-0.485,-0.485,-0.495,-0.5,-0.49,-0.475,-0.475,-0.47,-0.495,-0.495,-0.485,-0.475,-0.465,-0.475,-0.5,-0.485,-0.485,-0.465,-0.465,-0.49,-0.485,-0.49,-0.475,-0.47,-0.455,-0.475,-0.475,-0.485,-0.475,-0.47,-0.47,-0.45,-0.455,-0.465,-0.465,-0.465,-0.455,-0.455,-0.465,-0.475,-0.47,-0.465,-0.45,-0.46,-0.455,-0.465,-0.465,-0.435,-0.44,-0.46,-0.47,-0.46,-0.45,-0.45,-0.445,-0.445,-0.47,-0.47,-0.455,-0.455,-0.44,-0.45,-0.45,-0.465,-0.445,-0.455,-0.44,-0.45,-0.445,-0.455,-0.45,-0.44,-0.435,-0.43,-0.44,-0.445,-0.44,-0.44,-0.42,-0.45,-0.44,-0.45,-0.425,-0.405,-0.405,-0.42,-0.435,-0.425,-0.42,-0.41,-0.4,-0.42,-0.425,-0.43,-0.42,-0.405,-0.41,-0.395,-0.41,-0.39,-0.38,-0.365,-0.345,-0.35,-0.36,-0.375,-0.355,-0.325,-0.325,-0.32,-0.34,-0.345,-0.335,-0.325,-0.315,-0.32,-0.34,-0.355,-0.355,-0.36,-0.36,-0.385,-0.405,-0.4,-0.395,-0.385,-0.375,-0.39,-0.41,-0.41,-0.39,-0.37,-0.38,-0.4,-0.4,-0.405,-0.395,-0.38,-0.38,-0.355,-0.38,-0.37,-0.35,-0.33,-0.325,-0.345,-0.38,-0.41,-0.44,-0.45,-0.455,-0.44,-0.38,-0.24,0.015,0.385,0.785,1.2,1.505,1.72,1.81,1.715,1.335,0.695,0.055,-0.51,-0.615,-0.54,-0.495,-0.515,-0.545,-0.54,-0.525,-0.495,-0.46,-0.425,-0.405,-0.38,-0.345,-0.32,-0.33,-0.32,-0.345,-0.335,-0.32,-0.3,-0.295,-0.29,-0.3,-0.325,-0.305,-0.285,-0.28,-0.29,-0.295,-0.3,-0.28,-0.265,-0.26,-0.265,-0.29,-0.28,-0.275,-0.265,-0.27,-0.26,-0.265,-0.26,-0.245,-0.23,-0.225,-0.23,-0.255,-0.255,-0.235,-0.225,-0.21,-0.23,-0.23,-0.22,-0.21,-0.19,-0.185,-0.195,-0.2,-0.185,-0.175,-0.165,-0.145,-0.15,-0.155,-0.15,-0.14,-0.115,-0.1,-0.105,-0.12,-0.105,-0.085,-0.06,-0.055,-0.04,-0.045,-0.02,0.0,0.03,0.04,0.045,0.045,0.07,0.105,0.135,0.145,0.165,0.17,0.195,0.225,0.275,0.3,0.305,0.335,0.36,0.405,0.44,0.465,0.485,0.495,0.53,0.57,0.6,0.62,0.635,0.645,0.67,0.695,0.73,0.755,0.75,0.74,0.72,0.73,0.725,0.68,0.64,0.575,0.525,0.465,0.425,0.37,0.315,0.235,0.185,0.13,0.085,0.045,-0.005,-0.055,-0.105,-0.12,-0.135,-0.165,-0.185,-0.215,-0.24,-0.23,-0.245,-0.25,-0.28,-0.3,-0.31,-0.3,-0.29,-0.29,-0.3,-0.32,-0.335,-0.31,-0.305,-0.305,-0.32,-0.32,-0.33,-0.33,-0.315,-0.305,-0.305,-0.32,-0.325,-0.315,-0.3,-0.295,-0.305,-0.32,-0.315,-0.29,-0.285,-0.28,-0.295,-0.32,-0.3,-0.295,-0.27,-0.27,-0.285,-0.305,-0.29,-0.285,-0.255,-0.26,-0.26,-0.28,-0.27,-0.26,-0.255,-0.255,-0.26,-0.275,-0.285,-0.275,-0.27,-0.275,-0.28,-0.295,-0.285,-0.265,-0.26,-0.265,-0.265,-0.28,-0.28,-0.27,-0.245,-0.245,-0.27,-0.275,-0.27,-0.275,-0.255,-0.245,-0.255,-0.275,-0.275,-0.26,-0.25,-0.25,-0.265,-0.29,-0.27,-0.265,-0.245,-0.24,-0.245,-0.26,-0.265,-0.26,-0.25,-0.24,-0.26,-0.25,-0.255,-0.24,-0.23,-0.235,-0.235,-0.25,-0.26,-0.255,-0.24,-0.225,-0.245,-0.255,-0.245,-0.23,-0.225,-0.215,-0.215,-0.24,-0.26,-0.24,-0.235,-0.225,-0.215,-0.24,-0.24,-0.235,-0.21,-0.205,-0.215,-0.23,-0.225,-0.22,-0.195,-0.185,-0.2,-0.215,-0.21,-0.205,-0.18,-0.18,-0.19,-0.205,-0.215,-0.19,-0.175,-0.18,-0.185,-0.19,-0.185,-0.175,-0.17,-0.16,-0.16,-0.165,-0.17,-0.16,-0.13,-0.135,-0.125,-0.135,-0.125,-0.105,-0.09,-0.105,-0.095,-0.1,-0.095,-0.075,-0.06,-0.065,-0.08,-0.085,-0.09,-0.065,-0.075,-0.075,-0.1,-0.115,-0.125,-0.125,-0.115,-0.12,-0.135,-0.145,-0.15,-0.13,-0.11,-0.12,-0.12,-0.125,-0.13,-0.115,-0.095,-0.09,-0.105,-0.11,-0.115,-0.085,-0.06,-0.07,-0.06,-0.085,-0.07,-0.07,-0.07,-0.09,-0.125,-0.13,-0.12,-0.025,0.13,0.355,0.69,1.055,1.39,1.66,1.785,1.74,1.51,1.03,0.445,-0.025,-0.195,-0.17,-0.15,-0.155,-0.17,-0.18,-0.165,-0.14,-0.13,-0.12,-0.075,-0.03,0.0,0.01,0.005,-0.01,-0.005,0.005,0.02,0.025,0.02,0.005,0.015,0.03,0.055,0.045,0.045,0.035,0.04,0.055,0.07,0.08,0.05,0.055,0.045,0.06,0.065,0.07,0.07,0.055,0.05,0.085,0.1,0.1,0.09,0.08,0.09,0.095,0.1,0.11,0.11,0.115,0.115,0.12,0.15,0.145,0.14,0.145,0.15,0.175,0.185,0.195,0.19,0.18,0.19,0.195,0.235,0.24,0.245,0.24,0.245,0.26,0.295,0.315,0.315,0.315,0.335,0.375,0.395,0.425,0.44,0.46,0.46,0.52,0.565,0.595,0.625,0.655,0.69,0.735,0.79,0.82,0.86,0.875,0.91,0.945,0.99,1.01,1.01,1.0,0.98,0.98,0.96,0.895,0.845,0.77,0.705,0.63,0.57,0.51,0.435,0.36,0.3,0.26,0.23,0.185,0.13,0.095,0.075,0.055,0.05,0.04,0.02,-0.005,-0.015,-0.01,-0.01,-0.015,-0.03,-0.04,-0.045,-0.035,-0.04,-0.03,-0.06,-0.075,-0.075,-0.055,-0.045,-0.04,-0.045,-0.06,-0.06,-0.06,-0.035,-0.045,-0.04,-0.065,-0.06,-0.06,-0.045,-0.04,-0.055,-0.055,-0.055,-0.04,-0.025,-0.02,-0.035,-0.05,-0.055,-0.035,-0.02,-0.025,-0.045,-0.07,-0.065,-0.055,-0.03,-0.03,-0.04,-0.07,-0.07,-0.05,-0.055,-0.05,-0.055,-0.075,-0.075,-0.075,-0.06,-0.05,-0.06,-0.075,-0.08,-0.075,-0.055,-0.065,-0.075,-0.09,-0.095,-0.085,-0.07,-0.075,-0.095,-0.09,-0.115,-0.095,-0.09,-0.085,-0.105,-0.11,-0.11,-0.1,-0.085,-0.08,-0.095,-0.095,-0.105,-0.105,-0.085,-0.085,-0.095,-0.12,-0.12,-0.1,-0.08,-0.09,-0.085,-0.11,-0.115,-0.11,-0.09,-0.105,-0.11,-0.12,-0.13,-0.1,-0.095,-0.095,-0.1,-0.105,-0.125,-0.12,-0.09,-0.09,-0.105,-0.125,-0.115,-0.095,-0.09,-0.095,-0.095,-0.115,-0.12,-0.105,-0.1,-0.1,-0.105,-0.13,-0.135,-0.125,-0.115,-0.12,-0.12,-0.135,-0.12,-0.13,-0.105,-0.11,-0.115,-0.135,-0.14,-0.13,-0.115,-0.115,-0.115,-0.135,-0.145,-0.14,-0.115,-0.105,-0.125,-0.13,-0.13,-0.115,-0.1,-0.1,-0.105,-0.12,-0.13,-0.12,-0.105,-0.115,-0.105,-0.12,-0.13,-0.11,-0.105,-0.09,-0.11,-0.125,-0.13,-0.11,-0.105,-0.11,-0.115,-0.125,-0.13,-0.115,-0.095,-0.09,-0.095,-0.09,-0.09,-0.06,-0.04,-0.04,-0.045,-0.055,-0.055,-0.045,-0.035,-0.035,-0.055,-0.07,-0.07,-0.055,-0.04,-0.04,-0.06,-0.08,-0.105,-0.095,-0.105,-0.1,-0.115,-0.135,-0.135,-0.13,-0.125,-0.14,-0.13,-0.135,-0.145,-0.13,-0.12,-0.105,-0.105,-0.12,-0.11,-0.1,-0.08,-0.085,-0.09,-0.095,-0.09,-0.095,-0.09,-0.115,-0.145,-0.18,-0.19,-0.15,-0.07,0.08,0.3,0.61,1.0,1.365,1.635,1.755,1.735,1.56,1.19,0.625,0.09,-0.235,-0.305,-0.26,-0.245,-0.24,-0.24,-0.24,-0.235,-0.235,-0.2,-0.16,-0.11,-0.1,-0.085,-0.095,-0.085,-0.095,-0.075,-0.075,-0.08,-0.085,-0.095,-0.085,-0.06,-0.065,-0.075,-0.085,-0.08,-0.065,-0.055,-0.05,-0.085,-0.085,-0.075,-0.07,-0.055,-0.05,-0.055,-0.075,-0.065,-0.04,-0.03,-0.035,-0.045,-0.055,-0.04,-0.045,-0.03,-0.025,-0.03,-0.055,-0.04,-0.025,0.0,0.0,-0.01,-0.02,-0.03,-0.005,0.01,0.01,0.0,-0.01,0.0,0.02,0.03,0.04,0.015,0.02,0.035,0.055,0.07,0.075,0.08,0.085,0.09,0.115,0.125,0.13,0.12,0.13,0.145,0.17,0.185,0.2,0.22,0.205,0.21,0.24,0.28,0.285,0.3,0.33,0.345,0.37,0.405,0.425,0.43,0.445,0.47,0.495,0.515,0.535,0.56,0.58,0.59,0.63,0.66,0.68,0.68,0.705,0.72,0.755,0.775,0.785,0.79,0.795,0.805,0.825,0.835,0.825,0.795,0.77,0.74,0.71,0.69,0.64,0.59,0.52,0.475,0.43,0.39,0.34,0.275,0.215,0.16,0.105,0.09,0.065,0.01,-0.055,-0.08,-0.1,-0.11,-0.14,-0.175,-0.195,-0.215,-0.22,-0.22,-0.25,-0.255,-0.295,-0.285,-0.285,-0.28,-0.295,-0.3,-0.315,-0.335,-0.325,-0.315,-0.315,-0.31,-0.335,-0.335,-0.325,-0.31,-0.31,-0.33,-0.345,-0.335,-0.33,-0.315,-0.325,-0.33,-0.335,-0.34,-0.33,-0.315,-0.32,-0.325,-0.34,-0.355,-0.35,-0.335,-0.325,-0.34,-0.345,-0.36,-0.335,-0.325,-0.34,-0.335,-0.36,-0.36,-0.34,-0.325,-0.33,-0.35,-0.36,-0.355,-0.34,-0.33,-0.335,-0.35,-0.375,-0.365,-0.355,-0.34,-0.345,-0.36,-0.365,-0.375,-0.37,-0.35,-0.36,-0.36,-0.375,-0.39,-0.385,-0.385,-0.37,-0.375,-0.395,-0.395,-0.375,-0.375,-0.375,-0.38,-0.395,-0.415,-0.405,-0.375,-0.375,-0.385,-0.395,-0.415,-0.415,-0.4,-0.385,-0.41,-0.41,-0.415,-0.405,-0.385,-0.405,-0.405,-0.42,-0.425,-0.41,-0.395,-0.4,-0.415,-0.42,-0.43,-0.41,-0.405,-0.405,-0.41,-0.435,-0.44,-0.42,-0.415,-0.4,-0.415,-0.435,-0.445,-0.425,-0.405,-0.415,-0.43,-0.445,-0.435,-0.425,-0.395,-0.4,-0.425,-0.42,-0.43,-0.42,-0.405,-0.415,-0.415,-0.44,-0.43,-0.435,-0.405,-0.405,-0.415,-0.43,-0.43,-0.42,-0.42,-0.415,-0.425,-0.445,-0.44,-0.42,-0.41,-0.42,-0.42,-0.43,-0.435,-0.42,-0.415,-0.415,-0.43,-0.45,-0.445,-0.44,-0.425,-0.43,-0.43,-0.435,-0.455,-0.44,-0.415,-0.41,-0.425,-0.435,-0.44,-0.425,-0.42,-0.4,-0.41,-0.43,-0.445,-0.43,-0.435,-0.43,-0.425,-0.435,-0.43,-0.43,-0.425,-0.41,-0.42,-0.43,-0.43,-0.405,-0.4,-0.395,-0.385,-0.385,-0.385,-0.36,-0.35,-0.345,-0.35,-0.365,-0.35,-0.335,-0.32,-0.33,-0.345,-0.35,-0.355,-0.34,-0.335,-0.335,-0.365,-0.38,-0.39,-0.4,-0.39,-0.39,-0.41,-0.415,-0.435,-0.415,-0.395,-0.4,-0.415,-0.43,-0.425,-0.4,-0.39,-0.4,-0.395,-0.41,-0.41,-0.4,-0.395,-0.385,-0.385,-0.38,-0.385,-0.38,-0.39,-0.41,-0.445,-0.49,-0.51,-0.5,-0.44,-0.34,-0.145,0.145,0.56,1.035,1.44,1.745,1.88,1.875,1.685,1.24,0.6,-0.04,-0.605,-0.705,-0.625,-0.545,-0.53,-0.54,-0.555,-0.55,-0.53,-0.49,-0.435,-0.38,-0.37,-0.36,-0.365,-0.35,-0.335,-0.335,-0.345,-0.36,-0.36,-0.345,-0.325,-0.325,-0.32,-0.34,-0.335,-0.32,-0.3,-0.305,-0.315,-0.33,-0.325,-0.3,-0.29,-0.29,-0.305,-0.3,-0.315,-0.295,-0.285,-0.285,-0.28,-0.29,-0.29,-0.27,-0.25,-0.25,-0.255,-0.275,-0.27,-0.265,-0.23,-0.225,-0.24,-0.245,-0.25,-0.235,-0.215,-0.22,-0.21,-0.235,-0.235,-0.205,-0.18,-0.175,-0.19,-0.19,-0.195,-0.185,-0.15,-0.14,-0.165,-0.155,-0.15,-0.13,-0.125,-0.1,-0.105,-0.11,-0.09,-0.075,-0.05,-0.04,-0.045,-0.02,-0.02,-0.01,0.02,0.055,0.06,0.06,0.08,0.105,0.14,0.165,0.165,0.175,0.2,0.24,0.265,0.295,0.32,0.32,0.345,0.375,0.43,0.435,0.445,0.475,0.495,0.52,0.575,0.605,0.595,0.62,0.64,0.68,0.705,0.72,0.715,0.72,0.705,0.7,0.69,0.665,0.63,0.58,0.53,0.49,0.445,0.39,0.33,0.25,0.195,0.155,0.105,0.055,-0.01,-0.065,-0.125,-0.15,-0.19,-0.22,-0.265,-0.295,-0.325,-0.34,-0.34,-0.36,-0.38,-0.4,-0.415,-0.415,-0.41,-0.41,-0.435,-0.45,-0.47,-0.445,-0.455,-0.445,-0.445,-0.46,-0.47,-0.47,-0.455,-0.46,-0.455,-0.475,-0.47,-0.455,-0.445,-0.445,-0.46,-0.475,-0.485,-0.465,-0.45,-0.45,-0.47,-0.475,-0.46,-0.46,-0.45,-0.455,-0.45,-0.46,-0.46,-0.455,-0.44,-0.445,-0.45,-0.46,-0.465,-0.46,-0.46,-0.455,-0.455,-0.465,-0.475,-0.455,-0.455,-0.445,-0.45,-0.47,-0.465,-0.465,-0.45,-0.455,-0.47,-0.47,-0.48,-0.47,-0.46,-0.46,-0.48,-0.495,-0.485,-0.48,-0.47,-0.485,-0.475,-0.5,-0.5,-0.485,-0.48,-0.475,-0.485,-0.485,-0.5,-0.49,-0.475,-0.47,-0.475,-0.49,-0.495,-0.485,-0.47,-0.48,-0.495,-0.495,-0.495,-0.48,-0.485,-0.485,-0.475,-0.495,-0.505,-0.495,-0.475,-0.48,-0.49,-0.49,-0.505,-0.48,-0.475,-0.495,-0.5,-0.51,-0.51,-0.495,-0.495,-0.485,-0.485,-0.505,-0.485,-0.485,-0.48,-0.475,-0.475,-0.485,-0.495,-0.48,-0.465,-0.48,-0.475,-0.485,-0.485,-0.48,-0.475,-0.47,-0.49,-0.495,-0.48,-0.485,-0.47,-0.465,-0.47,-0.485,-0.485,-0.475,-0.465,-0.465,-0.48,-0.475,-0.48,-0.47,-0.455,-0.46,-0.46,-0.47,-0.475,-0.47,-0.445,-0.445,-0.45,-0.465,-0.47,-0.445,-0.435,-0.445,-0.465,-0.465,-0.46,-0.46,-0.445,-0.445,-0.44,-0.46,-0.47,-0.455,-0.435,-0.43,-0.445,-0.46,-0.45,-0.445,-0.425,-0.42,-0.43,-0.455,-0.465,-0.44,-0.425,-0.42,-0.435,-0.44,-0.45,-0.43,-0.41,-0.39,-0.4,-0.395,-0.4,-0.38,-0.37,-0.37,-0.365,-0.365,-0.355,-0.34,-0.325,-0.325,-0.35,-0.36,-0.36,-0.35,-0.34,-0.345,-0.37,-0.385,-0.395,-0.395,-0.395,-0.405,-0.415,-0.43,-0.415,-0.41,-0.41,-0.4,-0.405,-0.41,-0.43,-0.4,-0.38,-0.38,-0.38,-0.395,-0.39,-0.37,-0.365,-0.355,-0.365,-0.365,-0.355,-0.37,-0.365,-0.42,-0.45,-0.49,-0.485,-0.46,-0.395,-0.255,-0.005,0.365,0.825,1.3,1.67,1.88,1.9,1.645,1.11,0.47,-0.17,-0.65,-0.655,-0.57,-0.52,-0.52,-0.53,-0.515,-0.515,-0.5,-0.46,-0.41,-0.345,-0.32,-0.31,-0.325,-0.32,-0.29,-0.285,-0.295,-0.295,-0.295,-0.305,-0.28,-0.285,-0.255,-0.265,-0.28,-0.285,-0.275,-0.25,-0.24,-0.26,-0.285,-0.27,-0.24,-0.225,-0.22,-0.235,-0.24,-0.245,-0.245,-0.22,-0.215,-0.22,-0.225,-0.235,-0.21,-0.21,-0.205,-0.205,-0.22,-0.21,-0.19,-0.165,-0.17,-0.19,-0.185,-0.185,-0.17,-0.145,-0.145,-0.155,-0.155,-0.14,-0.12,-0.1,-0.095,-0.1,-0.09,-0.085,-0.065,-0.05,-0.03,-0.03,-0.01,0.005,0.025,0.075,0.095,0.09,0.095,0.11,0.165,0.205,0.21,0.22,0.225,0.25,0.315,0.355,0.38,0.39,0.41,0.425,0.465,0.515,0.54,0.555,0.575,0.6,0.645,0.665,0.7,0.71,0.715,0.75,0.775,0.79,0.805,0.8,0.775,0.755,0.73,0.71,0.665,0.595,0.545,0.495,0.455,0.37,0.335,0.25,0.18,0.115,0.07,0.03,-0.02,-0.085,-0.135,-0.17,-0.19,-0.2,-0.225,-0.255,-0.275,-0.285,-0.285,-0.285,-0.31,-0.33,-0.345,-0.35,-0.345,-0.335,-0.35,-0.36,-0.37,-0.37,-0.36,-0.355,-0.355,-0.365,-0.36,-0.375,-0.37,-0.34,-0.36,-0.365,-0.37,-0.37,-0.365,-0.355,-0.35,-0.375,-0.38,-0.385,-0.365,-0.345,-0.35,-0.37,-0.365,-0.375,-0.36,-0.345,-0.33,-0.36,-0.38,-0.37,-0.36,-0.35,-0.34,-0.35,-0.375,-0.37,-0.35,-0.345,-0.36,-0.37,-0.375,-0.365,-0.35,-0.345,-0.35,-0.365,-0.375,-0.375,-0.385,-0.365,-0.36,-0.365,-0.375,-0.37,-0.365,-0.345,-0.355,-0.365,-0.385,-0.385,-0.38,-0.355,-0.36,-0.385,-0.4,-0.395,-0.385,-0.37,-0.365,-0.39,-0.405,-0.395,-0.385,-0.36,-0.38,-0.39,-0.405,-0.395,-0.395,-0.37,-0.37,-0.39,-0.395,-0.4,-0.385,-0.375,-0.375,-0.38,-0.405,-0.395,-0.4,-0.38,-0.375,-0.395,-0.4,-0.395,-0.395,-0.38,-0.38,-0.38,-0.39,-0.39,-0.39,-0.375,-0.385,-0.4,-0.385,-0.38,-0.37,-0.36,-0.355,-0.365,-0.37,-0.38,-0.36,-0.35,-0.34,-0.36,-0.37,-0.38,-0.37,-0.36,-0.35,-0.36,-0.38,-0.36,-0.355,-0.365,-0.355,-0.365,-0.37,-0.38,-0.37,-0.355,-0.34,-0.335,-0.34,-0.32,-0.3,-0.29,-0.275,-0.285,-0.285,-0.29,-0.275,-0.25,-0.235,-0.245,-0.26,-0.275,-0.265,-0.255,-0.27,-0.285,-0.295,-0.295,-0.3,-0.31,-0.325,-0.34,-0.34,-0.35,-0.35,-0.33,-0.335,-0.345,-0.37,-0.35,-0.34,-0.325,-0.34,-0.34,-0.345,-0.355,-0.34,-0.325,-0.33,-0.33,-0.335,-0.34,-0.31,-0.3,-0.29,-0.315,-0.35,-0.38,-0.41,-0.425,-0.415,-0.415,-0.34,-0.17,0.165,0.59,1.05,1.465,1.765,1.945,1.96,1.71,1.12,0.48,-0.16,-0.645,-0.585,-0.475,-0.455,-0.48,-0.51,-0.5,-0.46,-0.415,-0.38,-0.34,-0.3,-0.29,-0.27,-0.265,-0.27,-0.28,-0.285,-0.28,-0.285,-0.25,-0.245,-0.255,-0.26,-0.265,-0.245,-0.225,-0.215,-0.23,-0.25,-0.24,-0.22,-0.21,-0.205,-0.21,-0.215,-0.225,-0.205,-0.2,-0.21,-0.215,-0.215,-0.2,-0.19,-0.17,-0.17,-0.18,-0.185,-0.17,-0.155,-0.145,-0.145,-0.15,-0.16,-0.16,-0.15,-0.12,-0.12,-0.13,-0.135,-0.12,-0.11,-0.085,-0.09,-0.09,-0.085,-0.08,-0.055,-0.02,-0.015,-0.015,-0.01,-0.01,0.015,0.035,0.045,0.065,0.075,0.09,0.12,0.145,0.17,0.175,0.185,0.21,0.245,0.28,0.31,0.32,0.345,0.37,0.4,0.45,0.49,0.505,0.51,0.54,0.575,0.625,0.66,0.665,0.675,0.69,0.72,0.755,0.78,0.785,0.795,0.785,0.8,0.805,0.79,0.76,0.7,0.63,0.61,0.56,0.495,0.42,0.34,0.27,0.215,0.17,0.105,0.035,-0.035,-0.075,-0.125,-0.145,-0.175,-0.195,-0.235,-0.255,-0.27,-0.275,-0.285,-0.29,-0.32,-0.32,-0.32,-0.32,-0.325,-0.325,-0.355,-0.355,-0.35,-0.34,-0.345,-0.36,-0.365,-0.365,-0.35,-0.34,-0.34,-0.35,-0.36,-0.365,-0.35,-0.34,-0.34,-0.36,-0.36,-0.35,-0.355,-0.34,-0.335,-0.34,-0.355,-0.35,-0.34,-0.34,-0.335,-0.35,-0.35,-0.345,-0.35,-0.33,-0.325,-0.335,-0.34,-0.355,-0.35,-0.33,-0.32,-0.355,-0.355,-0.35,-0.34,-0.33,-0.34,-0.365,-0.36,-0.355,-0.355,-0.335,-0.335,-0.345,-0.365,-0.385,-0.38,-0.345,-0.35,-0.355,-0.375,-0.365,-0.365,-0.355,-0.355,-0.365,-0.38,-0.365,-0.36,-0.355,-0.35,-0.36,-0.385,-0.38,-0.37,-0.36,-0.38,-0.38,-0.38,-0.375,-0.375,-0.36,-0.36,-0.365,-0.385,-0.38,-0.37,-0.355,-0.36,-0.39,-0.39,-0.39,-0.37,-0.355,-0.36,-0.365,-0.37,-0.38,-0.365,-0.355,-0.35,-0.365,-0.375,-0.365,-0.36,-0.345,-0.345,-0.365,-0.38,-0.375,-0.375,-0.37,-0.375,-0.375,-0.375,-0.38,-0.375,-0.35,-0.35,-0.36,-0.38,-0.37,-0.35,-0.35,-0.345,-0.36,-0.375,-0.36,-0.345,-0.325,-0.32,-0.32,-0.335,-0.31,-0.29,-0.28,-0.27,-0.27,-0.29,-0.28,-0.27,-0.255,-0.24,-0.245,-0.265,-0.275,-0.265,-0.255,-0.275,-0.28,-0.3,-0.295,-0.305,-0.305,-0.315,-0.34,-0.345,-0.35,-0.335,-0.32,-0.335,-0.335,-0.345,-0.36,-0.345,-0.325,-0.325,-0.33,-0.35,-0.33,-0.325,-0.315,-0.31,-0.32,-0.325,-0.325,-0.31,-0.3,-0.31,-0.33,-0.375,-0.41,-0.43,-0.415,-0.375,-0.29,-0.105,0.24,0.715,1.215,1.605,1.895,2.015,1.945,1.635,1.055,0.415,-0.225,-0.615,-0.585,-0.48,-0.435,-0.465,-0.485,-0.485,-0.455,-0.42,-0.35,-0.315,-0.29,-0.265,-0.255,-0.265,-0.265,-0.25,-0.255,-0.27,-0.26,-0.25,-0.23,-0.22,-0.23,-0.24,-0.24,-0.225,-0.21,-0.205,-0.22,-0.235,-0.235,-0.22,-0.2,-0.2,-0.22,-0.215,-0.22,-0.195,-0.18,-0.195,-0.185,-0.205,-0.185,-0.185,-0.17,-0.17,-0.16,-0.185,-0.165,-0.155,-0.145,-0.16,-0.17,-0.165,-0.175,-0.17,-0.13,-0.12,-0.13,-0.14,-0.145,-0.11,-0.1,-0.095,-0.095,-0.095,-0.09,-0.065,-0.06,-0.055,-0.025,-0.035,-0.03,-0.005,0.01,0.045,0.035,0.045,0.05,0.085,0.105,0.12,0.115,0.13,0.15,0.185,0.215,0.235,0.255,0.265,0.28,0.32,0.36,0.385,0.405,0.42,0.44,0.48,0.525,0.54,0.555,0.55,0.585,0.635,0.675,0.685,0.7,0.72,0.74,0.77,0.8,0.825,0.82,0.805,0.795,0.795,0.79,0.75,0.705,0.635,0.59,0.535,0.49,0.43,0.36,0.285,0.21,0.17,0.14,0.08,0.025,-0.045,-0.085,-0.12,-0.13,-0.165,-0.205,-0.23,-0.25,-0.255,-0.265,-0.285,-0.29,-0.315,-0.33,-0.32,-0.32,-0.315,-0.34,-0.35,-0.365,-0.36,-0.35,-0.345,-0.36,-0.365,-0.375,-0.355,-0.34,-0.35,-0.37,-0.375,-0.37,-0.35,-0.33,-0.345,-0.35,-0.36,-0.36,-0.34,-0.335,-0.33,-0.34,-0.345,-0.355,-0.34,-0.325,-0.325,-0.35,-0.36,-0.355,-0.335,-0.325,-0.345,-0.36,-0.375,-0.345,-0.335,-0.33,-0.33,-0.345,-0.36,-0.37,-0.355,-0.345,-0.34,-0.355,-0.37,-0.37,-0.355,-0.35,-0.36,-0.365,-0.37,-0.385,-0.365,-0.365,-0.37,-0.385,-0.4,-0.385,-0.375,-0.36,-0.38,-0.38,-0.4,-0.395,-0.385,-0.38,-0.38,-0.385,-0.385,-0.39,-0.38,-0.37,-0.39,-0.39,-0.41,-0.4,-0.395,-0.38,-0.385,-0.39,-0.4,-0.415,-0.4,-0.38,-0.39,-0.4,-0.39,-0.42,-0.405,-0.38,-0.38,-0.385,-0.4,-0.41,-0.405,-0.385,-0.38,-0.39,-0.42,-0.43,-0.4,-0.375,-0.385,-0.39,-0.415,-0.415,-0.395,-0.39,-0.39,-0.39,-0.415,-0.41,-0.405,-0.385,-0.38,-0.39,-0.405,-0.42,-0.4,-0.39,-0.39,-0.405,-0.405,-0.415,-0.4,-0.39,-0.385,-0.39,-0.405,-0.42,-0.395,-0.39,-0.395,-0.38,-0.405,-0.4,-0.4,-0.39,-0.385,-0.385,-0.425,-0.405,-0.395,-0.38,-0.385,-0.4,-0.41,-0.4,-0.385,-0.385,-0.375,-0.38,-0.39,-0.395,-0.405,-0.39,-0.39,-0.39,-0.395,-0.395,-0.39,-0.365,-0.36,-0.38,-0.385,-0.38,-0.375,-0.355,-0.365,-0.36,-0.375,-0.39,-0.355,-0.32,-0.325,-0.32,-0.315,-0.32,-0.315,-0.29,-0.275,-0.275,-0.29,-0.305,-0.31,-0.29,-0.28,-0.29,-0.305,-0.33,-0.315,-0.315,-0.33,-0.36,-0.375,-0.37,-0.36,-0.355,-0.35,-0.345,-0.37,-0.365,-0.355,-0.345,-0.345,-0.36,-0.355,-0.365,-0.35,-0.325,-0.32,-0.32,-0.345,-0.355,-0.37,-0.42,-0.44,-0.415,-0.315,-0.005,0.56,1.195,1.78,2.055,1.945,1.39,0.75,0.11,-0.53,-0.61,-0.465,-0.455,-0.465,-0.465,-0.43,-0.365,-0.31,-0.295,-0.29,-0.27,-0.27,-0.285,-0.28,-0.285,-0.275,-0.245,-0.245,-0.255,-0.255,-0.265,-0.245,-0.24,-0.23,-0.24,-0.25,-0.235,-0.225,-0.215,-0.225,-0.225,-0.23,-0.23,-0.225,-0.205,-0.2,-0.2,-0.19,-0.21,-0.185,-0.18,-0.165,-0.185,-0.195,-0.19,-0.17,-0.145,-0.14,-0.15,-0.165,-0.165,-0.145,-0.11,-0.11,-0.1,-0.115,-0.11,-0.08,-0.07,-0.055,-0.065,-0.065,-0.045,-0.04,0.0,0.0,-0.015,0.005,0.015,0.035,0.065,0.075,0.085,0.1,0.12,0.155,0.165,0.195,0.21,0.21,0.24,0.26,0.31,0.335,0.355,0.375,0.39,0.425,0.47,0.505,0.53,0.54,0.565,0.605,0.635,0.665,0.67,0.685,0.72,0.755,0.79,0.8,0.8,0.8,0.8,0.805,0.8,0.785,0.74,0.69,0.63,0.59,0.55,0.495,0.42,0.35,0.285,0.22,0.165,0.11,0.045,-0.005,-0.045,-0.09,-0.1,-0.14,-0.17,-0.205,-0.23,-0.23,-0.225,-0.235,-0.265,-0.295,-0.305,-0.285,-0.285,-0.285,-0.3,-0.325,-0.315,-0.305,-0.295,-0.31,-0.305,-0.33,-0.315,-0.325,-0.315,-0.31,-0.315,-0.32,-0.335,-0.315,-0.29,-0.29,-0.3,-0.305,-0.31,-0.305,-0.29,-0.295,-0.3,-0.315,-0.31,-0.305,-0.3,-0.305,-0.31,-0.32,-0.315,-0.3,-0.295,-0.29,-0.295,-0.305,-0.31,-0.295,-0.285,-0.295,-0.295,-0.31,-0.315,-0.3,-0.29,-0.31,-0.3,-0.32,-0.32,-0.325,-0.31,-0.3,-0.31,-0.32,-0.33,-0.33,-0.305,-0.295,-0.33,-0.32,-0.32,-0.315,-0.3,-0.3,-0.325,-0.32,-0.325,-0.32,-0.315,-0.315,-0.32,-0.34,-0.335,-0.335,-0.32,-0.31,-0.33,-0.335,-0.335,-0.32,-0.295,-0.315,-0.325,-0.335,-0.34,-0.32,-0.325,-0.32,-0.315,-0.335,-0.345,-0.33,-0.325,-0.31,-0.315,-0.33,-0.33,-0.325,-0.305,-0.305,-0.315,-0.335,-0.325,-0.33,-0.31,-0.32,-0.32,-0.34,-0.34,-0.325,-0.31,-0.32,-0.325,-0.32,-0.335,-0.32,-0.31,-0.305,-0.315,-0.33,-0.33,-0.34,-0.305,-0.305,-0.31,-0.325,-0.325,-0.32,-0.295,-0.3,-0.325,-0.325,-0.335,-0.32,-0.3,-0.3,-0.32,-0.32,-0.33,-0.305,-0.3,-0.295,-0.3,-0.305,-0.305,-0.305,-0.28,-0.275,-0.295,-0.31,-0.31,-0.3,-0.29,-0.285,-0.295,-0.305,-0.3,-0.285,-0.27,-0.28,-0.28,-0.3,-0.3,-0.305,-0.28,-0.275,-0.275,-0.29,-0.29,-0.285,-0.26,-0.27,-0.275,-0.29,-0.28,-0.275,-0.25,-0.235,-0.25,-0.25,-0.255,-0.225,-0.225,-0.225,-0.23,-0.215,-0.205,-0.185,-0.175,-0.195,-0.205,-0.22,-0.215,-0.21,-0.2,-0.2,-0.21,-0.235,-0.25,-0.255,-0.25,-0.24,-0.26,-0.26,-0.275,-0.26,-0.24,-0.23,-0.245,-0.245,-0.245,-0.245,-0.23,-0.22,-0.23,-0.235,-0.245,-0.23,-0.195,-0.19,-0.195,-0.215,-0.22,-0.235,-0.26,-0.285,-0.32,-0.33,-0.265,-0.105,0.175,0.595,1.055,1.49,1.825,2.045,2.095,1.88,1.385,0.745,0.105,-0.51,-0.52,-0.415,-0.36,-0.375,-0.395,-0.4,-0.37,-0.35,-0.31,-0.285,-0.22,-0.195,-0.16,-0.17,-0.17,-0.165,-0.165,-0.15,-0.14,-0.13,-0.135,-0.165,-0.165,-0.14,-0.11,-0.12,-0.125,-0.135,-0.13,-0.11,-0.1,-0.105,-0.12,-0.11,-0.13,-0.1,-0.085,-0.08,-0.085,-0.095,-0.09,-0.09,-0.07,-0.06,-0.07,-0.07,-0.07,-0.045,-0.04,-0.035,-0.045,-0.045,-0.05,-0.025,-0.015,-0.015,-0.04,-0.045,-0.03,-0.01,0.01,0.02,0.015,0.005,0.015,0.03,0.06,0.07,0.065,0.07,0.055,0.085,0.115,0.115,0.12,0.125,0.135,0.15,0.18,0.185,0.2,0.21,0.235,0.26,0.28,0.3,0.315,0.32,0.335,0.38,0.4,0.425,0.43,0.445,0.47,0.505,0.53,0.55,0.57,0.58,0.605,0.645,0.66,0.69,0.715,0.715,0.745,0.775,0.805,0.825,0.84,0.855,0.875,0.89,0.91,0.92,0.905,0.865,0.875,0.87,0.85,0.81,0.755,0.69,0.63,0.605,0.545,0.495,0.41,0.35,0.295,0.26,0.225,0.17,0.11,0.05,0.01,-0.015,-0.025,-0.05,-0.1,-0.13,-0.14,-0.155,-0.155,-0.17,-0.19,-0.21,-0.22,-0.215,-0.2,-0.205,-0.23,-0.235,-0.255,-0.245,-0.24,-0.24,-0.245,-0.265,-0.265,-0.265,-0.25,-0.24,-0.255,-0.28,-0.26,-0.255,-0.24,-0.25,-0.25,-0.27,-0.265,-0.26,-0.24,-0.24,-0.235,-0.245,-0.26,-0.245,-0.235,-0.23,-0.245,-0.255,-0.265,-0.255,-0.22,-0.235,-0.24,-0.25,-0.25,-0.245,-0.24,-0.235,-0.245,-0.255,-0.255,-0.25,-0.24,-0.24,-0.245,-0.26,-0.26,-0.25,-0.245,-0.25,-0.26,-0.26,-0.265,-0.265,-0.255,-0.255,-0.265,-0.275,-0.27,-0.27,-0.26,-0.255,-0.265,-0.29,-0.28,-0.27,-0.26,-0.265,-0.27,-0.305,-0.285,-0.275,-0.28,-0.28,-0.28,-0.295,-0.3,-0.275,-0.275,-0.285,-0.28,-0.29,-0.295,-0.285,-0.27,-0.27,-0.28,-0.31,-0.305,-0.285,-0.275,-0.27,-0.29,-0.295,-0.3,-0.295,-0.275,-0.27,-0.29,-0.29,-0.295,-0.28,-0.265,-0.27,-0.28,-0.295,-0.3,-0.285,-0.27,-0.27,-0.275,-0.295,-0.295,-0.275,-0.28,-0.26,-0.275,-0.29,-0.285,-0.26,-0.255,-0.255,-0.27,-0.285,-0.285,-0.27,-0.26,-0.26,-0.26,-0.27,-0.27,-0.255,-0.235,-0.235,-0.23,-0.245,-0.22,-0.215,-0.205,-0.19,-0.195,-0.2,-0.19,-0.17,-0.16,-0.175,-0.18,-0.205,-0.195,-0.185,-0.185,-0.195,-0.22,-0.23,-0.26,-0.255,-0.25,-0.25,-0.265,-0.275,-0.275,-0.265,-0.255,-0.265,-0.265,-0.28,-0.265,-0.255,-0.24,-0.25,-0.25,-0.27,-0.27,-0.26,-0.25,-0.245,-0.25,-0.26,-0.245,-0.235,-0.245,-0.245,-0.28,-0.315,-0.34,-0.355,-0.335,-0.315,-0.24,-0.065,0.28,0.72,1.19,1.585,1.88,2.015,1.975,1.72,1.205,0.565,-0.075,-0.51,-0.54,-0.445,-0.39,-0.405,-0.42,-0.435,-0.425,-0.39,-0.355,-0.3,-0.285,-0.255,-0.215,-0.195,-0.18,-0.185,-0.185,-0.21,-0.205,-0.185,-0.16,-0.165,-0.165,-0.19,-0.19,-0.17,-0.155,-0.155,-0.175,-0.185,-0.17,-0.16,-0.14,-0.145,-0.155,-0.155,-0.165,-0.15,-0.14,-0.145,-0.15,-0.15,-0.165,-0.145,-0.125,-0.12,-0.145,-0.145,-0.135,-0.14,-0.12,-0.105,-0.125,-0.105,-0.12,-0.115,-0.07,-0.08,-0.075,-0.08,-0.08,-0.08,-0.06,-0.04,-0.035,-0.065,-0.045,-0.035,-0.005,0.005,-0.025,-0.02,-0.01,0.02,0.03,0.045,0.04,0.03,0.055,0.07,0.09,0.1,0.09,0.115,0.12,0.14,0.17,0.185,0.19,0.205,0.23,0.255,0.305,0.315,0.315,0.335,0.36,0.4,0.445,0.46,0.48,0.49,0.515,0.55,0.575,0.61,0.625,0.64,0.665,0.7,0.73,0.74,0.775,0.775,0.775,0.82,0.85,0.85,0.825,0.81,0.815,0.815,0.795,0.75,0.7,0.645,0.6,0.545,0.49,0.445,0.365,0.295,0.24,0.195,0.145,0.095,0.04,-0.02,-0.055,-0.085,-0.11,-0.14,-0.18,-0.22,-0.24,-0.245,-0.235,-0.255,-0.275,-0.295,-0.305,-0.3,-0.3,-0.315,-0.335,-0.355,-0.35,-0.33,-0.32,-0.325,-0.36,-0.37,-0.365,-0.35,-0.335,-0.345,-0.35,-0.36,-0.385,-0.345,-0.34,-0.335,-0.35,-0.355,-0.365,-0.355,-0.33,-0.35,-0.35,-0.36,-0.355,-0.345,-0.335,-0.34,-0.35,-0.355,-0.345,-0.325,-0.32,-0.32,-0.34,-0.35,-0.35,-0.34,-0.32,-0.32,-0.345,-0.345,-0.35,-0.335,-0.32,-0.335,-0.345,-0.37,-0.375,-0.345,-0.33,-0.34,-0.36,-0.375,-0.37,-0.37,-0.345,-0.35,-0.37,-0.38,-0.385,-0.375,-0.36,-0.365,-0.37,-0.4,-0.385,-0.365,-0.355,-0.365,-0.39,-0.39,-0.4,-0.39,-0.385,-0.385,-0.39,-0.415,-0.415,-0.395,-0.39,-0.39,-0.4,-0.41,-0.405,-0.4,-0.375,-0.39,-0.395,-0.41,-0.4,-0.395,-0.375,-0.39,-0.41,-0.425,-0.41,-0.415,-0.4,-0.395,-0.41,-0.42,-0.43,-0.42,-0.39,-0.39,-0.405,-0.42,-0.43,-0.415,-0.385,-0.385,-0.405,-0.43,-0.435,-0.405,-0.395,-0.405,-0.4,-0.415,-0.415,-0.405,-0.39,-0.4,-0.425,-0.435,-0.43,-0.42,-0.41,-0.405,-0.42,-0.435,-0.445,-0.42,-0.395,-0.405,-0.415,-0.42,-0.425,-0.405,-0.4,-0.425,-0.42,-0.44,-0.435,-0.41,-0.4,-0.405,-0.43,-0.425,-0.42,-0.41,-0.39,-0.4,-0.42,-0.43,-0.42,-0.39,-0.375,-0.375,-0.365,-0.37,-0.37,-0.355,-0.325,-0.315,-0.335,-0.34,-0.345,-0.325,-0.3,-0.29,-0.305,-0.32,-0.335,-0.31,-0.295,-0.305,-0.325,-0.345,-0.355,-0.36,-0.34,-0.355,-0.37,-0.38,-0.385,-0.37,-0.37,-0.36,-0.375,-0.375,-0.365,-0.355,-0.34,-0.345,-0.345,-0.355,-0.345,-0.33,-0.325,-0.32,-0.32,-0.315,-0.31,-0.305,-0.305,-0.33,-0.37,-0.4,-0.42,-0.425,-0.37,-0.265,-0.065,0.26,0.72,1.225,1.65,1.945,2.06,1.975,1.635,0.995,0.355,-0.285,-0.62,-0.545,-0.445,-0.405,-0.405,-0.41,-0.405,-0.385,-0.33,-0.265,-0.21,-0.18,-0.185,-0.185,-0.195,-0.18,-0.17,-0.165,-0.155,-0.17,-0.175,-0.15,-0.12,-0.115,-0.125,-0.14,-0.12,-0.11,-0.085,-0.09,-0.09,-0.095,-0.09,-0.075,-0.065,-0.06,-0.05,-0.065,-0.065,-0.055,-0.02,-0.035,-0.03,-0.035,-0.02,-0.015,0.005,0.01,0.005,-0.005,0.01,0.03,0.045,0.06,0.05,0.045,0.055,0.08,0.09,0.09,0.095,0.075,0.105,0.13,0.155,0.165,0.17,0.16,0.17,0.19,0.21,0.225,0.235,0.24,0.245,0.28,0.305,0.325,0.335,0.34,0.365,0.39,0.415,0.43,0.445,0.46,0.485,0.515,0.545,0.575,0.6,0.61,0.625,0.675,0.72,0.725,0.76,0.775,0.8,0.835,0.865,0.895,0.92,0.935,0.955,0.99,1.03,1.065,1.07,1.075,1.085,1.1,1.125,1.11,1.095,1.055,1.01,0.995,0.96,0.895,0.825,0.76,0.685,0.655,0.63,0.55,0.495,0.43,0.37,0.355,0.33,0.315,0.255,0.23,0.195,0.19,0.195,0.17,0.155,0.125,0.13,0.125,0.14,0.135,0.12,0.11,0.105,0.115,0.13,0.115,0.1,0.1,0.11,0.11,0.125,0.125,0.125,0.1,0.11,0.125,0.14,0.14,0.125,0.12,0.13,0.155,0.15,0.145,0.155,0.145,0.145,0.15,0.165,0.175,0.175,0.16,0.17,0.175,0.2,0.195,0.19,0.175,0.18,0.195,0.21,0.22,0.215,0.2,0.195,0.21,0.23,0.23,0.215,0.205,0.205,0.23,0.235,0.23,0.22,0.21,0.21,0.215,0.235,0.22,0.22,0.215,0.21,0.235,0.245,0.235,0.23,0.225,0.215,0.235,0.26,0.255,0.24,0.24,0.235,0.255,0.265,0.265,0.255,0.25,0.24,0.245,0.27,0.28,0.265,0.255,0.25,0.265,0.285,0.28,0.27,0.255,0.265,0.27,0.29,0.295,0.28,0.28,0.27,0.29,0.32,0.31,0.295,0.295,0.285,0.29,0.31,0.32,0.31,0.305,0.31,0.315,0.335,0.345,0.335,0.31,0.31,0.325,0.335,0.35,0.33,0.32,0.32,0.335,0.355,0.345,0.335,0.335,0.33,0.35,0.36,0.355,0.335,0.34,0.34,0.345,0.375,0.37,0.36,0.355,0.36,0.375,0.385,0.375,0.365,0.365,0.365,0.39,0.395,0.38,0.365,0.37,0.375,0.385,0.405,0.41,0.375,0.375,0.38,0.405,0.415,0.405,0.405,0.395,0.37,0.39,0.41,0.385,0.395,0.395,0.405,0.415,0.42,0.43,0.4,0.4,0.42,0.435,0.45,0.455,0.455,0.445,0.45,0.47,0.51,0.505,0.47,0.47,0.49,0.51,0.52,0.515,0.49,0.485,0.485,0.495,0.52,0.505,0.49,0.46,0.46,0.47,0.46,0.45,0.435,0.43,0.44,0.41,0.435,0.45,0.455,0.42,0.435,0.455,0.47,0.47,0.46,0.435,0.44,0.455,0.465,0.45,0.445,0.46,0.465,0.475,0.48,0.455,0.415,0.365,0.34,0.345,0.36,0.41,0.52,0.725,1.055,1.46,1.845,2.13,2.275,2.3,2.22,1.97,1.46,0.82,0.225,0.105,0.22,0.345,0.375,0.335,0.335,0.34,0.36,0.43,0.5,0.53,0.525,0.535,0.54,0.555,0.565,0.57,0.555,0.54,0.555,0.565,0.57,0.57,0.575,0.565,0.565,0.57,0.59,0.59,0.58,0.57,0.565,0.58,0.59,0.59,0.585,0.58,0.56,0.58,0.58,0.6,0.585,0.575,0.565,0.605,0.62,0.605,0.605,0.59,0.6,0.595,0.605,0.615,0.595,0.6,0.59,0.625,0.645,0.64,0.63,0.625,0.63,0.65,0.665,0.675,0.655,0.65,0.68,0.68,0.71,0.71,0.72,0.72,0.725,0.745,0.765,0.785,0.79,0.79,0.8,0.82,0.85,0.845,0.885,0.885,0.9,0.925,0.96,0.99,1.005,1.025,1.045,1.07,1.11,1.125,1.16,1.165,1.165,1.21,1.24,1.27,1.285,1.305,1.3,1.335,1.38,1.39,1.395,1.385,1.37,1.37,1.355,1.305,1.24,1.18,1.14,1.095,1.045,0.985,0.905,0.84,0.775,0.735,0.71,0.65,0.585,0.525,0.515,0.485,0.475,0.455,0.425,0.405,0.385,0.375,0.385,0.365,0.33,0.325,0.305,0.3,0.31,0.315,0.29,0.28,0.275,0.295,0.3,0.27,0.26,0.25,0.255,0.255,0.275,0.26,0.255,0.24,0.24,0.255,0.26,0.245,0.23,0.225,0.235,0.24,0.26,0.26,0.23,0.22,0.23,0.25,0.235,0.225,0.21,0.215,0.21,0.235,0.235,0.24,0.23,0.215,0.21,0.23,0.215,0.23,0.195,0.195,0.19,0.2,0.2,0.205,0.18,0.165,0.155,0.175,0.185,0.18,0.155,0.15,0.15,0.16,0.17,0.175,0.145,0.135,0.14,0.14,0.15,0.155,0.115,0.125,0.115,0.115,0.125,0.12,0.105,0.1,0.11,0.11,0.13,0.11,0.11,0.085,0.085,0.095,0.1,0.085,0.085,0.065,0.07,0.08,0.095,0.085,0.07,0.04,0.07,0.075,0.095,0.075,0.07,0.06,0.055,0.045,0.08,0.065,0.045,0.04,0.045,0.07,0.07,0.065,0.045,0.035,0.035,0.045,0.055,0.04,0.035,0.025,0.02,0.04,0.055,0.035,0.03,0.02,0.015,0.03,0.035,0.025,0.015,0.01,0.01,0.005,0.025,0.02,-0.005,-0.01,-0.015,-0.02,-0.01,-0.01,-0.025,-0.03,-0.025,-0.02,-0.015,-0.005,-0.02,-0.03,-0.025,-0.025,-0.005,-0.01,-0.015,-0.035,-0.02,-0.03,-0.005,-0.015,-0.03,-0.04,-0.025,-0.015,0.005,-0.005,-0.005,-0.015,-0.005,0.0,0.005,0.005,-0.01,0.01,-0.01,0.015,0.01,0.01,-0.005,0.0,-0.025,-0.025,-0.01,-0.03,-0.045,-0.075,-0.075,-0.065,-0.065,-0.07,-0.08,-0.085,-0.095,-0.085,-0.07,-0.08,-0.095,-0.095,-0.09,-0.095,-0.065,-0.075,-0.085,-0.09,-0.1,-0.09,-0.07,-0.085,-0.1,-0.14,-0.19,-0.21,-0.21,-0.215,-0.19,-0.095,0.115,0.485,0.91,1.32,1.6,1.725,1.72,1.55,1.145,0.505,-0.135,-0.51,-0.445,-0.3,-0.235,-0.265,-0.3,-0.31,-0.275,-0.24,-0.175,-0.14,-0.095,-0.095,-0.085,-0.08,-0.075,-0.08,-0.085,-0.1,-0.09,-0.08,-0.07,-0.065,-0.085,-0.1,-0.08,-0.075,-0.055,-0.07,-0.07,-0.075,-0.075,-0.07,-0.04,-0.04,-0.05,-0.055,-0.06,-0.04,-0.035,-0.035,-0.05,-0.055,-0.05,-0.045,-0.02,-0.04,-0.05,-0.04,-0.045,-0.03,-0.025,-0.01,-0.025,-0.045,-0.04,-0.01,0.0,0.005,0.0,-0.01,-0.015,0.005,0.025,0.03,0.03,0.03,0.02,0.04,0.075,0.07,0.07,0.075,0.08,0.085,0.125,0.13,0.125,0.135,0.15,0.17,0.205,0.22,0.225,0.24,0.26,0.295,0.33,0.35,0.37,0.375,0.39,0.43,0.47,0.485,0.5,0.52,0.545,0.58,0.615,0.65,0.655,0.655,0.68,0.705,0.745,0.745,0.735,0.74,0.72,0.715,0.705,0.665,0.61,0.535,0.49,0.435,0.38,0.315,0.235,0.16,0.09,0.065,0.03,-0.03,-0.085,-0.13,-0.165,-0.185,-0.195,-0.215,-0.255,-0.28,-0.295,-0.285,-0.29,-0.3,-0.325,-0.34,-0.355,-0.34,-0.34,-0.35,-0.365,-0.395,-0.39,-0.38,-0.385,-0.375,-0.4,-0.42,-0.41,-0.4,-0.385,-0.395,-0.405,-0.42,-0.42,-0.42,-0.395,-0.395,-0.415,-0.43,-0.425,-0.42,-0.405,-0.41,-0.42,-0.44,-0.455,-0.44,-0.42,-0.41,-0.425,-0.435,-0.42,-0.41,-0.4,-0.42,-0.425,-0.44,-0.435,-0.43,-0.425,-0.44,-0.44,-0.45,-0.46,-0.46,-0.44,-0.445,-0.475,-0.465,-0.475,-0.465,-0.45,-0.455,-0.485,-0.49,-0.51,-0.485,-0.47,-0.48,-0.495,-0.51,-0.51,-0.51,-0.49,-0.485,-0.505,-0.515,-0.52,-0.5,-0.505,-0.505,-0.525,-0.535,-0.54,-0.52,-0.515,-0.51,-0.525,-0.545,-0.545,-0.53,-0.52,-0.525,-0.53,-0.545,-0.555,-0.545,-0.535,-0.53,-0.53,-0.555,-0.57,-0.565,-0.545,-0.54,-0.56,-0.585,-0.585,-0.575,-0.58,-0.57,-0.58,-0.58,-0.59,-0.575,-0.555,-0.57,-0.59,-0.59,-0.595,-0.57,-0.57,-0.565,-0.58,-0.59,-0.59,-0.58,-0.59,-0.57,-0.58,-0.58,-0.59,-0.55,-0.53,-0.52,-0.535,-0.545,-0.545,-0.515,-0.5,-0.51,-0.54,-0.565,-0.55,-0.55,-0.53,-0.555,-0.58,-0.605,-0.61,-0.62,-0.59,-0.61,-0.625,-0.64,-0.635,-0.63,-0.61,-0.61,-0.63,-0.635,-0.635,-0.635,-0.615,-0.615,-0.635,-0.615,-0.615,-0.6,-0.605,-0.595,-0.61,-0.65,-0.675,-0.705,-0.73,-0.74,-0.73,-0.675,-0.49,-0.205,0.195,0.63,1.005,1.295,1.455,1.46,1.275,0.805,0.165,-0.475,-0.94,-0.975,-0.855,-0.785,-0.805,-0.845,-0.825,-0.8,-0.75,-0.72,-0.675,-0.64,-0.605,-0.575,-0.57,-0.57,-0.575,-0.595,-0.59,-0.575,-0.56,-0.56,-0.57,-0.585,-0.575,-0.555,-0.55,-0.55,-0.56,-0.565,-0.575,-0.55,-0.53,-0.54,-0.555,-0.56,-0.555,-0.545,-0.52,-0.52,-0.535,-0.55,-0.545,-0.535,-0.515,-0.5,-0.525,-0.52,-0.52,-0.5,-0.485,-0.49,-0.51,-0.535,-0.505,-0.495,-0.49,-0.49,-0.48,-0.505,-0.49,-0.475,-0.465,-0.45,-0.455,-0.475,-0.465,-0.445,-0.425,-0.42,-0.425,-0.435,-0.425,-0.395,-0.365,-0.37,-0.38,-0.37,-0.355,-0.335,-0.315,-0.3,-0.295,-0.3,-0.29,-0.265,-0.23,-0.215,-0.205,-0.2,-0.17,-0.135,-0.11,-0.085,-0.075,-0.075,-0.035,-0.01,0.03,0.05,0.055,0.08,0.09,0.125,0.15,0.21,0.21,0.205,0.245,0.275,0.315,0.325,0.34,0.345,0.36,0.38,0.405,0.385,0.36,0.345,0.305,0.275,0.255,0.21,0.14,0.065,0.02,-0.015,-0.07,-0.14,-0.2,-0.255,-0.32,-0.35,-0.39,-0.44,-0.485,-0.53,-0.565,-0.585,-0.6,-0.625,-0.66,-0.7,-0.705,-0.705,-0.71,-0.725,-0.755,-0.77,-0.77,-0.76,-0.76,-0.785,-0.785,-0.795,-0.79,-0.785,-0.785,-0.79,-0.81,-0.81,-0.82,-0.8,-0.795,-0.79,-0.805,-0.83,-0.82,-0.8,-0.79,-0.79,-0.805,-0.815,-0.82,-0.805,-0.785,-0.8,-0.8,-0.81,-0.82,-0.8,-0.79,-0.785,-0.81,-0.825,-0.825,-0.8,-0.79,-0.79,-0.82,-0.82,-0.815,-0.8,-0.79,-0.79,-0.8,-0.835,-0.815,-0.815,-0.795,-0.805,-0.805,-0.835,-0.835,-0.83,-0.825,-0.81,-0.825,-0.855,-0.845,-0.84,-0.815,-0.83,-0.83,-0.85,-0.85,-0.835,-0.825,-0.84,-0.855,-0.87,-0.865,-0.855,-0.845,-0.84,-0.855,-0.88,-0.865,-0.855,-0.86,-0.845,-0.87,-0.875,-0.875,-0.86,-0.855,-0.855,-0.875,-0.885,-0.885,-0.88,-0.865,-0.855,-0.88,-0.895,-0.895,-0.885,-0.86,-0.87,-0.875,-0.89,-0.905,-0.885,-0.865,-0.88,-0.865,-0.895,-0.9,-0.875,-0.875,-0.885,-0.9,-0.905,-0.905,-0.885,-0.875,-0.895,-0.905,-0.915,-0.91,-0.895,-0.88,-0.885,-0.905,-0.905,-0.9,-0.895,-0.89,-0.885,-0.895,-0.9,-0.91,-0.905,-0.895,-0.88,-0.91,-0.91,-0.915,-0.905,-0.9,-0.9,-0.895,-0.91,-0.915,-0.915,-0.875,-0.895,-0.915,-0.91,-0.915,-0.91,-0.9,-0.905,-0.93,-0.935,-0.92,-0.915,-0.9,-0.9,-0.915,-0.925,-0.915,-0.905,-0.89,-0.895,-0.91,-0.92,-0.93,-0.915,-0.9,-0.905,-0.915,-0.93,-0.915,-0.91,-0.89,-0.9,-0.92,-0.92,-0.925,-0.9,-0.88,-0.885,-0.895,-0.895,-0.885,-0.86,-0.83,-0.84,-0.85,-0.87,-0.86,-0.83,-0.805,-0.81,-0.84,-0.85,-0.845,-0.835,-0.82,-0.83,-0.85,-0.87,-0.875,-0.87,-0.88,-0.885,-0.905,-0.915,-0.905,-0.905,-0.895,-0.885,-0.9,-0.9,-0.91,-0.88,-0.875,-0.89,-0.89,-0.905,-0.895,-0.875,-0.86,-0.87,-0.88,-0.895,-0.87,-0.865,-0.85,-0.86,-0.89,-0.94,-0.965,-0.98,-0.96,-0.945,-0.885,-0.755,-0.495,-0.08,0.375,0.785,1.12,1.33,1.41,1.335,1.005,0.39,-0.25,-0.89,-1.21,-1.14,-1.045,-1.015,-1.045,-1.075,-1.06,-1.02,-0.97,-0.93,-0.91,-0.885,-0.855,-0.85,-0.835,-0.835,-0.835,-0.845,-0.84,-0.825,-0.815,-0.825,-0.825,-0.84,-0.835,-0.805,-0.81,-0.79,-0.805,-0.815,-0.805,-0.795,-0.785,-0.8,-0.795,-0.795,-0.795,-0.785,-0.78,-0.775,-0.79,-0.795,-0.785,-0.785,-0.76,-0.76,-0.77,-0.77,-0.775,-0.745,-0.725,-0.745,-0.74,-0.74,-0.76,-0.74,-0.72,-0.705,-0.715,-0.73,-0.71,-0.7,-0.68,-0.685,-0.69,-0.7,-0.68,-0.67,-0.65,-0.635,-0.64,-0.65,-0.65,-0.635,-0.59,-0.605,-0.61,-0.595,-0.595,-0.56,-0.545,-0.53,-0.53,-0.52,-0.5,-0.475,-0.45,-0.435,-0.425,-0.42,-0.4,-0.37,-0.33,-0.315,-0.305,-0.285,-0.265,-0.215,-0.185,-0.165,-0.145,-0.125,-0.1,-0.065,-0.025,0.0,0.01,0.025,0.04,0.07,0.105,0.145,0.145,0.145,0.175,0.205,0.23,0.225,0.205,0.185,0.185,0.185,0.175,0.13,0.075,0.02,-0.035,-0.075,-0.12,-0.19,-0.26,-0.325,-0.375,-0.415,-0.45,-0.505,-0.56,-0.625,-0.655,-0.67,-0.69,-0.74,-0.77,-0.795,-0.82,-0.82,-0.82,-0.84,-0.875,-0.885,-0.875,-0.875,-0.865,-0.885,-0.91,-0.91,-0.915,-0.905,-0.9,-0.895,-0.91,-0.925,-0.925,-0.92,-0.905,-0.9,-0.915,-0.91,-0.925,-0.91,-0.905,-0.88,-0.895,-0.92,-0.9,-0.895,-0.865,-0.88,-0.885,-0.91,-0.9,-0.9,-0.885,-0.875,-0.885,-0.91,-0.9,-0.885,-0.87,-0.875,-0.885,-0.895,-0.885,-0.87,-0.855,-0.865,-0.87,-0.885,-0.885,-0.865,-0.865,-0.885,-0.89,-0.89,-0.895,-0.89,-0.865,-0.87,-0.885,-0.89,-0.89,-0.885,-0.88,-0.89,-0.915,-0.905,-0.885,-0.88,-0.875,-0.87,-0.89,-0.91,-0.905,-0.89,-0.88,-0.875,-0.895,-0.905,-0.91,-0.89,-0.875,-0.885,-0.885,-0.905,-0.895,-0.895,-0.89,-0.885,-0.89,-0.895,-0.895,-0.89,-0.875,-0.88,-0.9,-0.9,-0.9,-0.895,-0.885,-0.875,-0.895,-0.905,-0.895,-0.88,-0.865,-0.87,-0.88,-0.895,-0.885,-0.87,-0.86,-0.87,-0.885,-0.885,-0.88,-0.87,-0.86,-0.87,-0.875,-0.88,-0.89,-0.865,-0.855,-0.855,-0.86,-0.875,-0.875,-0.85,-0.83,-0.86,-0.855,-0.87,-0.875,-0.865,-0.835,-0.84,-0.86,-0.865,-0.855,-0.84,-0.83,-0.83,-0.85,-0.85,-0.85,-0.83,-0.82,-0.825,-0.84,-0.84,-0.84,-0.83,-0.81,-0.825,-0.825,-0.83,-0.845,-0.83,-0.805,-0.82,-0.82,-0.835,-0.825,-0.81,-0.8,-0.805,-0.81,-0.82,-0.825,-0.825,-0.805,-0.805,-0.81,-0.825,-0.82,-0.795,-0.79,-0.785,-0.81,-0.81,-0.82,-0.795,-0.78,-0.785,-0.8,-0.805,-0.79,-0.785,-0.77,-0.765,-0.77,-0.77,-0.765,-0.735,-0.71,-0.72,-0.735,-0.75,-0.73,-0.695,-0.685,-0.685,-0.705,-0.72,-0.71,-0.7,-0.68,-0.7,-0.715,-0.735,-0.735,-0.74,-0.73,-0.745,-0.77,-0.77,-0.77,-0.75,-0.74,-0.73,-0.75,-0.755,-0.745,-0.755,-0.73,-0.72,-0.72,-0.735,-0.725,-0.715,-0.7,-0.685,-0.695,-0.705,-0.69,-0.685,-0.69,-0.72,-0.76,-0.8,-0.82,-0.77,-0.66,-0.47,-0.155,0.28,0.775,1.22,1.525,1.66,1.63,1.375,0.89,0.25,-0.39,-0.875,-0.955,-0.9,-0.82,-0.83,-0.82,-0.83,-0.82,-0.8,-0.755,-0.705,-0.665,-0.615,-0.615,-0.63,-0.63,-0.615,-0.605,-0.615,-0.62,-0.62,-0.615,-0.6,-0.58,-0.58,-0.59,-0.595,-0.59,-0.575,-0.56,-0.565,-0.58,-0.575,-0.58,-0.555,-0.535,-0.535,-0.545,-0.56,-0.545,-0.545,-0.515,-0.53,-0.53,-0.535,-0.535,-0.515,-0.505,-0.505,-0.51,-0.52,-0.515,-0.505,-0.47,-0.465,-0.48,-0.5,-0.48,-0.465,-0.45,-0.45,-0.45,-0.455,-0.445,-0.42,-0.41,-0.405,-0.415,-0.405,-0.395,-0.365,-0.355,-0.35,-0.385,-0.375,-0.355,-0.325,-0.31,-0.31,-0.32,-0.31,-0.295,-0.265,-0.245,-0.235,-0.22,-0.22,-0.2,-0.165,-0.13,-0.115,-0.11,-0.105,-0.08,-0.045,-0.005,0.015,0.025,0.035,0.065,0.11,0.15,0.17,0.18,0.2,0.23,0.26,0.3,0.325,0.335,0.35,0.365,0.42,0.455,0.485,0.495,0.505,0.51,0.55,0.565,0.555,0.535,0.505,0.49,0.46,0.445,0.395,0.33,0.26,0.185,0.135,0.095,0.025,-0.055,-0.125,-0.165,-0.2,-0.24,-0.285,-0.34,-0.375,-0.41,-0.415,-0.42,-0.445,-0.485,-0.505,-0.525,-0.515,-0.51,-0.515,-0.545,-0.55,-0.55,-0.535,-0.52,-0.535,-0.55,-0.565,-0.57,-0.55,-0.545,-0.545,-0.565,-0.57,-0.55,-0.54,-0.525,-0.53,-0.545,-0.545,-0.545,-0.53,-0.515,-0.52,-0.54,-0.545,-0.555,-0.525,-0.51,-0.515,-0.525,-0.535,-0.53,-0.505,-0.495,-0.51,-0.525,-0.525,-0.525,-0.51,-0.49,-0.495,-0.505,-0.51,-0.51,-0.505,-0.485,-0.495,-0.51,-0.51,-0.5,-0.5,-0.495,-0.49,-0.51,-0.515,-0.51,-0.5,-0.485,-0.485,-0.5,-0.515,-0.51,-0.505,-0.475,-0.495,-0.49,-0.515,-0.515,-0.495,-0.49,-0.485,-0.5,-0.515,-0.525,-0.505,-0.49,-0.49,-0.495,-0.505,-0.5,-0.485,-0.485,-0.48,-0.49,-0.495,-0.495,-0.48,-0.485,-0.48,-0.485,-0.495,-0.49,-0.48,-0.485,-0.47,-0.485,-0.485,-0.49,-0.47,-0.455,-0.465,-0.47,-0.48,-0.47,-0.47,-0.46,-0.475,-0.49,-0.49,-0.475,-0.455,-0.445,-0.45,-0.455,-0.46,-0.455,-0.445,-0.435,-0.445,-0.455,-0.455,-0.455,-0.445,-0.44,-0.435,-0.44,-0.445,-0.45,-0.445,-0.42,-0.43,-0.425,-0.445,-0.44,-0.43,-0.405,-0.395,-0.42,-0.425,-0.425,-0.4,-0.385,-0.4,-0.405,-0.415,-0.415,-0.41,-0.385,-0.39,-0.4,-0.405,-0.41,-0.39,-0.375,-0.375,-0.39,-0.405,-0.395,-0.38,-0.385,-0.365,-0.375,-0.395,-0.36,-0.345,-0.345,-0.33,-0.345,-0.35,-0.335,-0.32,-0.295,-0.295,-0.305,-0.305,-0.285,-0.275,-0.255,-0.275,-0.295,-0.3,-0.3,-0.285,-0.255,-0.265,-0.29,-0.32,-0.32,-0.31,-0.3,-0.32,-0.335,-0.35,-0.365,-0.335,-0.32,-0.33,-0.34,-0.345,-0.33,-0.325,-0.325,-0.31,-0.325,-0.34,-0.33,-0.33,-0.31,-0.3,-0.305,-0.315,-0.3,-0.29,-0.265,-0.265,-0.28,-0.32,-0.345,-0.375,-0.385,-0.39,-0.38,-0.32,-0.165,0.125,0.535,0.995,1.395,1.71,1.925,1.97,1.795,1.31,0.67,0.03,-0.465,-0.565,-0.495,-0.44,-0.44,-0.46,-0.46,-0.445,-0.425,-0.42,-0.395,-0.345,-0.3,-0.24,-0.21,-0.215,-0.225,-0.24,-0.225,-0.21,-0.185,-0.195,-0.2,-0.195,-0.185,-0.175,-0.16,-0.17,-0.16,-0.17,-0.17,-0.155,-0.145,-0.155,-0.145,-0.15,-0.17,-0.145,-0.12,-0.12,-0.13,-0.135,-0.14,-0.12,-0.105,-0.105,-0.115,-0.135,-0.11,-0.11,-0.085,-0.1,-0.105,-0.1,-0.09,-0.075,-0.075,-0.07,-0.08,-0.07,-0.085,-0.06,-0.045,-0.035,-0.045,-0.05,-0.035,-0.035,-0.005,0.02,0.015,0.015,0.03,0.065,0.075,0.09,0.07,0.085,0.105,0.115,0.145,0.16,0.165,0.17,0.2,0.24,0.26,0.285,0.285,0.3,0.32,0.365,0.39,0.42,0.44,0.46,0.485,0.525,0.575,0.605,0.605,0.615,0.655,0.68,0.725,0.755,0.765,0.765,0.795,0.83,0.865,0.87,0.86,0.84,0.84,0.825,0.82,0.765,0.705,0.655,0.6,0.55,0.505,0.435,0.365,0.29,0.225,0.18,0.135,0.105,0.025,-0.025,-0.06,-0.08,-0.105,-0.13,-0.16,-0.195,-0.205,-0.205,-0.21,-0.22,-0.235,-0.26,-0.26,-0.26,-0.26,-0.265,-0.285,-0.3,-0.28,-0.27,-0.275,-0.27,-0.29,-0.3,-0.295,-0.275,-0.27,-0.27,-0.295,-0.305,-0.29,-0.275,-0.27,-0.265,-0.285,-0.295,-0.29,-0.27,-0.27,-0.265,-0.285,-0.29,-0.28,-0.27,-0.255,-0.245,-0.265,-0.28,-0.285,-0.26,-0.24,-0.255,-0.265,-0.295,-0.28,-0.27,-0.255,-0.265,-0.29,-0.29,-0.29,-0.275,-0.29,-0.28,-0.31,-0.305,-0.3,-0.28,-0.27,-0.285,-0.295,-0.295,-0.31,-0.305,-0.29,-0.285,-0.305,-0.32,-0.33,-0.32,-0.3,-0.3,-0.315,-0.325,-0.315,-0.305,-0.305,-0.305,-0.325,-0.335,-0.335,-0.335,-0.3,-0.32,-0.33,-0.325,-0.32,-0.315,-0.305,-0.315,-0.335,-0.355,-0.345,-0.33,-0.315,-0.325,-0.33,-0.36,-0.34,-0.335,-0.32,-0.33,-0.335,-0.355,-0.34,-0.335,-0.33,-0.33,-0.345,-0.36,-0.35,-0.335,-0.325,-0.34,-0.33,-0.365,-0.35,-0.34,-0.33,-0.335,-0.335,-0.35,-0.355,-0.33,-0.325,-0.325,-0.345,-0.35,-0.335,-0.32,-0.315,-0.335,-0.335,-0.35,-0.35,-0.33,-0.325,-0.32,-0.345,-0.355,-0.36,-0.325,-0.32,-0.32,-0.335,-0.35,-0.345,-0.33,-0.31,-0.325,-0.33,-0.345,-0.345,-0.34,-0.32,-0.33,-0.35,-0.36,-0.34,-0.33,-0.32,-0.335,-0.335,-0.34,-0.355,-0.33,-0.32,-0.335,-0.325,-0.34,-0.34,-0.325,-0.325,-0.31,-0.32,-0.335,-0.315,-0.305,-0.28,-0.265,-0.28,-0.28,-0.27,-0.255,-0.245,-0.245,-0.255,-0.255,-0.265,-0.255,-0.25,-0.25,-0.26,-0.27,-0.275,-0.28,-0.27,-0.28,-0.31,-0.34,-0.34,-0.33,-0.315,-0.31,-0.32,-0.335,-0.33,-0.315,-0.29,-0.305,-0.315,-0.33,-0.33,-0.315,-0.3,-0.3,-0.31,-0.31,-0.3,-0.28,-0.255,-0.275,-0.305,-0.34,-0.365,-0.375,-0.38,-0.37,-0.35,-0.21,0.05,0.45,0.94,1.41,1.77,1.975,2.005,1.79,1.26,0.62,-0.02,-0.62,-0.605,-0.48,-0.425,-0.46,-0.47,-0.465,-0.425,-0.37,-0.31,-0.275,-0.265,-0.26,-0.26,-0.255,-0.235,-0.24,-0.255,-0.245,-0.245,-0.23,-0.215,-0.215,-0.23,-0.24,-0.225,-0.215,-0.21,-0.215,-0.22,-0.23,-0.22,-0.2,-0.195,-0.205,-0.22,-0.23,-0.215,-0.21,-0.17,-0.19,-0.19,-0.205,-0.19,-0.175,-0.155,-0.16,-0.17,-0.195,-0.185,-0.17,-0.145,-0.14,-0.14,-0.155,-0.15,-0.135,-0.125,-0.115,-0.12,-0.125,-0.13,-0.09,-0.08,-0.085,-0.085,-0.08,-0.065,-0.05,-0.03,-0.03,-0.02,-0.03,-0.005,0.01,0.03,0.03,0.035,0.045,0.07,0.09,0.095,0.11,0.115,0.13,0.155,0.195,0.235,0.24,0.265,0.275,0.31,0.335,0.36,0.39,0.4,0.425,0.46,0.5,0.535,0.55,0.575,0.595,0.605,0.65,0.68,0.7,0.705,0.705,0.73,0.75,0.77,0.75,0.735,0.71,0.69,0.66,0.63,0.57,0.51,0.435,0.385,0.34,0.275,0.195,0.14,0.06,0.01,-0.025,-0.055,-0.1,-0.15,-0.205,-0.22,-0.24,-0.25,-0.285,-0.315,-0.315,-0.32,-0.335,-0.335,-0.35,-0.37,-0.38,-0.38,-0.375,-0.365,-0.375,-0.39,-0.4,-0.405,-0.4,-0.4,-0.385,-0.39,-0.4,-0.4,-0.385,-0.38,-0.385,-0.4,-0.41,-0.41,-0.395,-0.385,-0.39,-0.4,-0.39,-0.39,-0.385,-0.38,-0.385,-0.395,-0.4,-0.395,-0.395,-0.385,-0.375,-0.38,-0.41,-0.4,-0.395,-0.385,-0.395,-0.405,-0.405,-0.405,-0.39,-0.385,-0.395,-0.415,-0.43,-0.41,-0.42,-0.41,-0.405,-0.415,-0.415,-0.415,-0.415,-0.405,-0.41,-0.42,-0.43,-0.425,-0.415,-0.405,-0.415,-0.425,-0.445,-0.435,-0.415,-0.4,-0.42,-0.435,-0.455,-0.45,-0.43,-0.425,-0.43,-0.445,-0.445,-0.44,-0.43,-0.425,-0.44,-0.43,-0.45,-0.445,-0.43,-0.41,-0.435,-0.445,-0.46,-0.45,-0.435,-0.425,-0.44,-0.435,-0.455,-0.445,-0.43,-0.43,-0.43,-0.435,-0.46,-0.445,-0.435,-0.435,-0.44,-0.45,-0.445,-0.435,-0.43,-0.43,-0.425,-0.445,-0.46,-0.45,-0.435,-0.425,-0.44,-0.445,-0.46,-0.44,-0.435,-0.435,-0.42,-0.445,-0.45,-0.445,-0.425,-0.425,-0.425,-0.44,-0.44,-0.445,-0.43,-0.42,-0.425,-0.43,-0.44,-0.45,-0.44,-0.425,-0.425,-0.45,-0.45,-0.44,-0.425,-0.42,-0.435,-0.44,-0.445,-0.445,-0.425,-0.41,-0.415,-0.445,-0.445,-0.435,-0.425,-0.405,-0.415,-0.435,-0.43,-0.42,-0.415,-0.415,-0.43,-0.44,-0.425,-0.425,-0.415,-0.405,-0.415,-0.435,-0.445,-0.44,-0.415,-0.405,-0.405,-0.395,-0.41,-0.395,-0.38,-0.35,-0.36,-0.375,-0.375,-0.35,-0.345,-0.335,-0.35,-0.375,-0.38,-0.365,-0.355,-0.345,-0.365,-0.385,-0.41,-0.41,-0.405,-0.41,-0.405,-0.42,-0.42,-0.435,-0.42,-0.4,-0.405,-0.41,-0.425,-0.425,-0.4,-0.38,-0.4,-0.4,-0.415,-0.385,-0.39,-0.35,-0.365,-0.37,-0.415,-0.435,-0.465,-0.48,-0.495,-0.47,-0.385,-0.17,0.195,0.685,1.195,1.61,1.87,1.95,1.805,1.36,0.72,0.08,-0.56,-0.7,-0.565,-0.495,-0.505,-0.555,-0.56,-0.545,-0.48,-0.425,-0.385,-0.365,-0.35,-0.355,-0.345,-0.325,-0.33,-0.33,-0.355,-0.34,-0.32,-0.31,-0.31,-0.33,-0.33,-0.32,-0.295,-0.295,-0.295,-0.315,-0.325,-0.31,-0.305,-0.285,-0.285,-0.3,-0.3,-0.295,-0.28,-0.27,-0.265,-0.285,-0.295,-0.29,-0.265,-0.265,-0.26,-0.265,-0.285,-0.265,-0.255,-0.245,-0.245,-0.25,-0.255,-0.25,-0.23,-0.23,-0.215,-0.235,-0.22,-0.215,-0.19,-0.165,-0.175,-0.18,-0.175,-0.16,-0.135,-0.135,-0.125,-0.125,-0.115,-0.095,-0.09,-0.055,-0.06,-0.05,-0.035,-0.02,-0.005,0.025,0.05,0.055,0.07,0.085,0.125,0.15,0.16,0.19,0.215,0.24,0.285,0.315,0.34,0.365,0.375,0.42,0.45,0.49,0.51,0.515,0.55,0.57,0.605,0.65,0.655,0.67,0.675,0.68,0.695,0.695,0.67,0.65,0.595,0.55,0.535,0.49,0.43,0.35,0.275,0.205,0.155,0.085,-0.01,-0.075,-0.145,-0.2,-0.24,-0.265,-0.315,-0.36,-0.4,-0.405,-0.415,-0.41,-0.44,-0.435,-0.46,-0.455,-0.45,-0.445,-0.435,-0.47,-0.495,-0.47,-0.45,-0.44,-0.445,-0.455,-0.465,-0.465,-0.465,-0.46,-0.455,-0.47,-0.475,-0.48,-0.465,-0.445,-0.445,-0.455,-0.48,-0.455,-0.45,-0.435,-0.435,-0.45,-0.465,-0.46,-0.45,-0.445,-0.445,-0.445,-0.475,-0.465,-0.45,-0.455,-0.445,-0.47,-0.475,-0.47,-0.46,-0.445,-0.455,-0.485,-0.495,-0.49,-0.485,-0.48,-0.47,-0.49,-0.51,-0.495,-0.485,-0.475,-0.485,-0.49,-0.505,-0.495,-0.475,-0.47,-0.49,-0.505,-0.495,-0.485,-0.485,-0.475,-0.47,-0.495,-0.52,-0.49,-0.485,-0.48,-0.495,-0.51,-0.515,-0.505,-0.485,-0.5,-0.495,-0.505,-0.525,-0.5,-0.5,-0.495,-0.5,-0.495,-0.51,-0.515,-0.505,-0.495,-0.495,-0.51,-0.52,-0.505,-0.505,-0.475,-0.485,-0.51,-0.505,-0.505,-0.485,-0.485,-0.48,-0.5,-0.505,-0.5,-0.5,-0.5,-0.49,-0.5,-0.52,-0.515,-0.5,-0.49,-0.485,-0.5,-0.51,-0.51,-0.49,-0.485,-0.495,-0.51,-0.515,-0.505,-0.485,-0.48,-0.485,-0.505,-0.515,-0.525,-0.5,-0.485,-0.485,-0.51,-0.51,-0.495,-0.49,-0.49,-0.5,-0.505,-0.51,-0.51,-0.495,-0.48,-0.485,-0.49,-0.505,-0.505,-0.48,-0.485,-0.485,-0.495,-0.51,-0.495,-0.49,-0.47,-0.465,-0.48,-0.475,-0.475,-0.46,-0.455,-0.455,-0.46,-0.465,-0.445,-0.42,-0.41,-0.405,-0.42,-0.43,-0.425,-0.405,-0.385,-0.39,-0.405,-0.425,-0.42,-0.415,-0.4,-0.41,-0.425,-0.45,-0.46,-0.455,-0.45,-0.455,-0.47,-0.48,-0.475,-0.465,-0.45,-0.455,-0.475,-0.46,-0.465,-0.45,-0.44,-0.445,-0.455,-0.47,-0.455,-0.44,-0.43,-0.425,-0.435,-0.43,-0.435,-0.425,-0.445,-0.485,-0.53,-0.565,-0.565,-0.505,-0.38,-0.18,0.18,0.67,1.16,1.56,1.805,1.895,1.765,1.335,0.695,0.055,-0.585,-0.755,-0.685,-0.605,-0.6,-0.6,-0.6,-0.605,-0.59,-0.57,-0.53,-0.465,-0.425,-0.405,-0.405,-0.415,-0.405,-0.395,-0.385,-0.405,-0.415,-0.41,-0.4,-0.385,-0.385,-0.375,-0.38,-0.395,-0.38,-0.36,-0.35,-0.36,-0.375,-0.38,-0.355,-0.35,-0.35,-0.345,-0.35,-0.345,-0.345,-0.335,-0.32,-0.325,-0.33,-0.35,-0.335,-0.32,-0.305,-0.31,-0.32,-0.32,-0.315,-0.295,-0.295,-0.3,-0.29,-0.3,-0.29,-0.275,-0.265,-0.26,-0.27,-0.27,-0.265,-0.255,-0.23,-0.225,-0.235,-0.23,-0.225,-0.2,-0.165,-0.165,-0.17,-0.19,-0.15,-0.13,-0.11,-0.12,-0.11,-0.115,-0.1,-0.07,-0.04,-0.03,-0.03,-0.03,0.005,0.035,0.065,0.075,0.1,0.125,0.155,0.18,0.225,0.235,0.265,0.3,0.34,0.38,0.385,0.405,0.43,0.45,0.485,0.515,0.55,0.58,0.58,0.59,0.61,0.645,0.68,0.68,0.655,0.645,0.665,0.68,0.665,0.625,0.585,0.535,0.48,0.435,0.395,0.33,0.255,0.17,0.12,0.065,0.03,-0.02,-0.085,-0.135,-0.18,-0.195,-0.22,-0.255,-0.29,-0.32,-0.345,-0.345,-0.35,-0.355,-0.39,-0.405,-0.405,-0.395,-0.395,-0.39,-0.41,-0.425,-0.43,-0.41,-0.41,-0.4,-0.43,-0.435,-0.435,-0.42,-0.41,-0.41,-0.42,-0.43,-0.425,-0.415,-0.39,-0.405,-0.405,-0.405,-0.4,-0.385,-0.385,-0.375,-0.38,-0.4,-0.395,-0.37,-0.36,-0.37,-0.38,-0.385,-0.365,-0.36,-0.35,-0.355,-0.355,-0.36,-0.37,-0.34,-0.335,-0.335,-0.345,-0.36,-0.35,-0.34,-0.32,-0.32,-0.34,-0.345,-0.345,-0.335,-0.31,-0.315,-0.345,-0.33,-0.34,-0.34,-0.32,-0.325,-0.33,-0.335,-0.33,-0.305,-0.31,-0.32,-0.32,-0.315,-0.32,-0.3,-0.3,-0.3,-0.305,-0.31,-0.31,-0.28,-0.27,-0.275,-0.295,-0.29,-0.285,-0.29,-0.26,-0.265,-0.27,-0.29,-0.28,-0.27,-0.255,-0.265,-0.265,-0.26,-0.255,-0.245,-0.24,-0.235,-0.25,-0.26,-0.275,-0.235,-0.23,-0.23,-0.245,-0.255,-0.26,-0.24,-0.215,-0.22,-0.23,-0.23,-0.235,-0.22,-0.21,-0.205,-0.215,-0.22,-0.215,-0.205,-0.2,-0.19,-0.2,-0.21,-0.205,-0.175,-0.165,-0.175,-0.185,-0.185,-0.18,-0.17,-0.15,-0.15,-0.17,-0.17,-0.175,-0.16,-0.15,-0.145,-0.15,-0.15,-0.13,-0.105,-0.1,-0.09,-0.09,-0.08,-0.07,-0.07,-0.045,-0.05,-0.06,-0.06,-0.035,-0.025,0.005,0.005,-0.015,-0.02,-0.02,-0.01,0.01,-0.015,-0.025,-0.035,-0.04,-0.035,-0.055,-0.065,-0.075,-0.095,-0.075,-0.06,-0.05,-0.06,-0.055,-0.06,-0.06,-0.045,-0.035,-0.045,-0.055,-0.06,-0.045,-0.035,-0.01,-0.025,-0.025,-0.02,-0.02,0.015,0.015,0.01,0.01,-0.005,-0.02,-0.035,-0.055,-0.085,-0.105,-0.085,0.0,0.15,0.435,0.835,1.245,1.635,1.98,2.195,2.275,2.185,1.845,1.24,0.6,-0.04,-0.26,-0.215,-0.145,-0.12,-0.125,-0.11,-0.09,-0.09,-0.075,-0.06,0.0,0.065,0.11,0.13,0.12,0.115,0.12,0.135,0.15,0.165,0.145,0.145,0.16,0.165,0.185,0.18,0.17,0.165,0.175,0.195,0.205,0.2,0.205,0.195,0.215,0.225,0.235,0.225,0.21,0.21,0.225,0.24,0.245,0.24,0.24,0.215,0.26,0.275,0.29,0.28,0.27,0.27,0.275,0.3,0.31,0.295,0.285,0.275,0.295,0.32,0.34,0.315,0.33,0.325,0.34,0.355,0.37,0.375,0.37,0.36,0.375,0.395,0.405,0.415,0.41,0.41,0.445,0.46,0.48,0.475,0.485,0.49,0.5,0.52,0.55,0.555,0.56,0.56,0.58,0.61,0.63,0.655,0.64,0.655,0.67,0.7,0.74,0.75,0.765,0.785,0.8,0.83,0.87,0.88,0.895,0.915,0.945,0.98,1.01,1.015,1.04,1.055,1.08,1.105,1.15,1.165,1.175,1.195,1.215,1.25,1.27,1.27,1.265,1.265,1.265,1.26,1.25,1.215,1.165,1.12,1.1,1.07,1.015,0.96,0.88,0.835,0.775,0.74,0.7,0.63,0.575,0.52,0.485,0.46,0.415,0.38,0.355,0.305,0.285,0.285,0.275,0.25,0.22,0.205,0.2,0.2,0.195,0.2,0.195,0.165,0.175,0.17,0.18,0.17,0.165,0.155,0.17,0.175,0.175,0.165,0.145,0.15,0.14,0.16,0.175,0.175,0.15,0.135,0.145,0.175,0.175,0.165,0.16,0.145,0.155,0.175,0.175,0.175,0.17,0.165,0.155,0.17,0.19,0.18,0.175,0.165,0.175,0.185,0.19,0.17,0.175,0.17,0.175,0.19,0.195,0.185,0.16,0.155,0.16,0.185,0.18,0.175,0.175,0.16,0.17,0.18,0.19,0.185,0.165,0.14,0.16,0.17,0.175,0.165,0.165,0.155,0.155,0.165,0.175,0.175,0.15,0.135,0.145,0.155,0.165,0.16,0.155,0.135,0.155,0.16,0.165,0.15,0.155,0.115,0.13,0.155,0.15,0.155,0.14,0.125,0.15,0.145,0.16,0.16,0.145,0.13,0.145,0.155,0.15,0.145,0.145,0.125,0.14,0.15,0.16,0.145,0.13,0.12,0.135,0.14,0.14,0.145,0.125,0.115,0.125,0.14,0.145,0.145,0.115,0.115,0.125,0.13,0.135,0.135,0.125,0.11,0.105,0.13,0.14,0.14,0.12,0.125,0.14,0.15,0.17,0.17,0.18,0.185,0.195,0.21,0.21,0.2,0.175,0.195,0.215,0.235,0.24,0.235,0.21,0.2,0.195,0.19,0.2,0.18,0.17,0.15,0.13,0.13,0.13,0.12,0.09,0.105,0.12,0.13,0.125,0.13,0.11,0.105,0.115,0.115,0.115,0.13,0.115,0.11,0.115,0.125,0.13,0.115,0.11,0.11,0.13,0.145,0.145,0.11,0.065,0.02,0.0,-0.01,0.005,0.06,0.175,0.405,0.76,1.185,1.6,1.92,2.115,2.195,2.16,1.955,1.48,0.84,0.2,-0.205,-0.2,-0.095,-0.055,-0.07,-0.09,-0.075,-0.06,-0.015,0.02,0.06,0.09,0.115,0.14,0.165,0.16,0.17,0.145,0.145,0.14,0.155,0.175,0.17,0.155,0.14,0.15,0.18,0.195,0.185,0.17,0.155,0.18,0.2,0.205,0.19,0.175,0.17,0.16,0.19,0.19,0.18,0.185,0.185,0.19,0.21,0.215,0.225,0.2,0.185,0.2,0.215,0.22,0.225,0.205,0.2,0.215,0.24,0.235,0.235,0.22,0.23,0.24,0.25,0.27,0.26,0.26,0.255,0.265,0.275,0.295,0.29,0.29,0.285,0.295,0.305,0.335,0.335,0.325,0.33,0.345,0.365,0.39,0.375,0.395,0.395,0.42,0.44,0.465,0.47,0.465,0.48,0.505,0.535,0.565,0.58,0.6,0.61,0.63,0.68,0.69,0.72,0.73,0.74,0.78,0.805,0.85,0.85,0.88,0.875,0.915,0.955,0.98,0.995,1.01,1.01,1.04,1.06,1.07,1.07,1.04,1.005,0.985,0.97,0.935,0.86,0.785,0.72,0.66,0.61,0.56,0.5,0.415,0.37,0.325,0.28,0.245,0.195,0.145,0.12,0.08,0.065,0.05,0.025,-0.01,-0.03,-0.03,-0.035,-0.055,-0.07,-0.08,-0.1,-0.095,-0.11,-0.095,-0.1,-0.11,-0.125,-0.125,-0.125,-0.105,-0.115,-0.13,-0.135,-0.135,-0.125,-0.11,-0.12,-0.125,-0.135,-0.145,-0.12,-0.115,-0.13,-0.15,-0.16,-0.16,-0.145,-0.13,-0.13,-0.15,-0.17,-0.17,-0.14,-0.135,-0.135,-0.145,-0.165,-0.17,-0.16,-0.145,-0.155,-0.17,-0.18,-0.17,-0.175,-0.165,-0.165,-0.19,-0.185,-0.175,-0.17,-0.165,-0.18,-0.205,-0.215,-0.21,-0.2,-0.205,-0.215,-0.23,-0.24,-0.22,-0.22,-0.215,-0.215,-0.23,-0.245,-0.23,-0.225,-0.225,-0.245,-0.255,-0.26,-0.245,-0.23,-0.235,-0.25,-0.255,-0.26,-0.275,-0.25,-0.26,-0.255,-0.27,-0.27,-0.275,-0.27,-0.27,-0.26,-0.275,-0.295,-0.305,-0.28,-0.27,-0.295,-0.305,-0.32,-0.3,-0.295,-0.29,-0.3,-0.325,-0.32,-0.325,-0.305,-0.295,-0.31,-0.32,-0.315,-0.32,-0.31,-0.315,-0.32,-0.32,-0.33,-0.33,-0.32,-0.33,-0.315,-0.32,-0.325,-0.34,-0.32,-0.325,-0.325,-0.335,-0.355,-0.335,-0.32,-0.33,-0.325,-0.33,-0.34,-0.345,-0.34,-0.325,-0.33,-0.34,-0.35,-0.34,-0.32,-0.295,-0.295,-0.295,-0.295,-0.29,-0.285,-0.285,-0.285,-0.29,-0.3,-0.28,-0.26,-0.28,-0.3,-0.295,-0.31,-0.3,-0.3,-0.305,-0.32,-0.34,-0.365,-0.37,-0.365,-0.36,-0.37,-0.385,-0.4,-0.415,-0.39,-0.375,-0.38,-0.39,-0.4,-0.385,-0.375,-0.37,-0.39,-0.395,-0.395,-0.375,-0.375,-0.36,-0.355,-0.375,-0.4,-0.385,-0.4,-0.43,-0.46,-0.505,-0.525,-0.495,-0.405,-0.21,0.085,0.44,0.875,1.3,1.625,1.785,1.85,1.725,1.365,0.725,0.085,-0.52,-0.71,-0.675,-0.605,-0.57,-0.555,-0.57,-0.56,-0.545,-0.525,-0.47,-0.415,-0.37,-0.355,-0.37,-0.365,-0.375,-0.345,-0.35,-0.35,-0.36,-0.355,-0.355,-0.36,-0.345,-0.34,-0.35,-0.365,-0.35,-0.335,-0.335,-0.34,-0.345,-0.36,-0.355,-0.34,-0.325,-0.33,-0.34,-0.345,-0.33,-0.315,-0.315,-0.32,-0.325,-0.325,-0.325,-0.32,-0.305,-0.305,-0.31,-0.33,-0.3,-0.295,-0.275,-0.295,-0.305,-0.3,-0.3,-0.275,-0.265,-0.27,-0.275,-0.285,-0.265,-0.255,-0.24,-0.25,-0.26,-0.255,-0.23,-0.21,-0.205,-0.2,-0.21,-0.2,-0.19,-0.165,-0.14,-0.135,-0.14,-0.125,-0.11,-0.085,-0.07,-0.05,-0.045,-0.045,-0.015,0.005,0.05,0.055,0.065,0.075,0.1,0.14,0.16,0.185,0.195,0.22,0.26,0.3,0.335,0.335,0.35,0.38,0.405,0.445,0.475,0.495,0.51,0.515,0.53,0.57,0.59,0.58,0.555,0.54,0.52,0.5,0.47,0.415,0.355,0.29,0.24,0.18,0.13,0.065,-0.025,-0.075,-0.115,-0.165,-0.205,-0.255,-0.315,-0.36,-0.38,-0.4,-0.41,-0.44,-0.47,-0.49,-0.51,-0.505,-0.505,-0.52,-0.545,-0.56,-0.57,-0.55,-0.555,-0.555,-0.595,-0.595,-0.575,-0.565,-0.575,-0.575,-0.57,-0.595,-0.59,-0.575,-0.575,-0.595,-0.605,-0.61,-0.595,-0.585,-0.585,-0.575,-0.605,-0.61,-0.6,-0.595,-0.585,-0.585,-0.59,-0.62,-0.605,-0.585,-0.6,-0.605,-0.615,-0.61,-0.605,-0.6,-0.6,-0.585,-0.605,-0.605,-0.605,-0.595,-0.6,-0.605,-0.62,-0.625,-0.61,-0.615,-0.61,-0.625,-0.625,-0.645,-0.64,-0.635,-0.625,-0.645,-0.655,-0.665,-0.655,-0.63,-0.62,-0.635,-0.645,-0.66,-0.655,-0.635,-0.65,-0.655,-0.655,-0.67,-0.66,-0.645,-0.63,-0.65,-0.655,-0.665,-0.66,-0.655,-0.635,-0.65,-0.655,-0.685,-0.665,-0.635,-0.64,-0.65,-0.66,-0.66,-0.65,-0.65,-0.65,-0.67,-0.67,-0.675,-0.67,-0.66,-0.655,-0.665,-0.69,-0.68,-0.665,-0.64,-0.645,-0.65,-0.68,-0.675,-0.67,-0.655,-0.65,-0.645,-0.675,-0.67,-0.67,-0.66,-0.645,-0.655,-0.67,-0.685,-0.665,-0.65,-0.655,-0.64,-0.655,-0.665,-0.66,-0.64,-0.635,-0.64,-0.65,-0.67,-0.655,-0.64,-0.635,-0.645,-0.66,-0.67,-0.665,-0.645,-0.635,-0.64,-0.65,-0.68,-0.665,-0.64,-0.64,-0.65,-0.665,-0.665,-0.65,-0.64,-0.635,-0.63,-0.645,-0.65,-0.63,-0.61,-0.605,-0.595,-0.595,-0.61,-0.595,-0.585,-0.565,-0.555,-0.555,-0.575,-0.57,-0.56,-0.55,-0.56,-0.59,-0.585,-0.6,-0.605,-0.585,-0.605,-0.635,-0.645,-0.64,-0.63,-0.62,-0.635,-0.655,-0.655,-0.645,-0.635,-0.61,-0.63,-0.64,-0.645,-0.64,-0.63,-0.615,-0.615,-0.63,-0.635,-0.615,-0.605,-0.595,-0.59,-0.625,-0.645,-0.68,-0.685,-0.705,-0.715,-0.71,-0.645,-0.44,-0.1,0.345,0.84,1.26,1.57,1.745,1.69,1.39,0.75,0.11,-0.53,-0.965,-0.885,-0.775,-0.755,-0.795,-0.805,-0.795,-0.76,-0.71,-0.67,-0.64,-0.605,-0.58,-0.565,-0.55,-0.56,-0.565,-0.585,-0.565,-0.55,-0.535,-0.54,-0.55,-0.55,-0.54,-0.53,-0.52,-0.53,-0.545,-0.53,-0.53,-0.51,-0.495,-0.515,-0.515,-0.52,-0.51,-0.495,-0.475,-0.495,-0.505,-0.51,-0.5,-0.47,-0.465,-0.475,-0.465,-0.475,-0.46,-0.46,-0.44,-0.44,-0.47,-0.465,-0.45,-0.42,-0.42,-0.405,-0.425,-0.42,-0.41,-0.395,-0.375,-0.37,-0.365,-0.375,-0.355,-0.34,-0.325,-0.32,-0.31,-0.3,-0.285,-0.26,-0.235,-0.22,-0.21,-0.215,-0.175,-0.16,-0.14,-0.13,-0.11,-0.09,-0.055,-0.01,0.015,0.035,0.055,0.07,0.105,0.15,0.18,0.2,0.225,0.24,0.285,0.325,0.355,0.37,0.385,0.4,0.435,0.475,0.485,0.5,0.48,0.475,0.465,0.445,0.415,0.375,0.295,0.24,0.19,0.12,0.08,0.025,-0.06,-0.115,-0.165,-0.215,-0.265,-0.31,-0.365,-0.41,-0.44,-0.475,-0.49,-0.505,-0.54,-0.55,-0.565,-0.565,-0.58,-0.6,-0.61,-0.63,-0.63,-0.605,-0.595,-0.61,-0.63,-0.635,-0.635,-0.63,-0.615,-0.625,-0.64,-0.64,-0.645,-0.635,-0.64,-0.62,-0.63,-0.645,-0.645,-0.62,-0.61,-0.62,-0.63,-0.64,-0.65,-0.635,-0.615,-0.62,-0.64,-0.64,-0.625,-0.6,-0.61,-0.605,-0.61,-0.625,-0.615,-0.605,-0.585,-0.61,-0.625,-0.63,-0.61,-0.605,-0.59,-0.605,-0.62,-0.62,-0.615,-0.6,-0.605,-0.61,-0.625,-0.62,-0.615,-0.615,-0.6,-0.62,-0.61,-0.635,-0.625,-0.62,-0.62,-0.61,-0.63,-0.64,-0.635,-0.63,-0.625,-0.63,-0.66,-0.65,-0.64,-0.63,-0.605,-0.625,-0.64,-0.645,-0.645,-0.63,-0.62,-0.65,-0.64,-0.645,-0.64,-0.625,-0.625,-0.635,-0.645,-0.66,-0.65,-0.63,-0.63,-0.645,-0.645,-0.66,-0.655,-0.625,-0.64,-0.635,-0.645,-0.65,-0.64,-0.62,-0.615,-0.63,-0.64,-0.64,-0.635,-0.64,-0.61,-0.63,-0.635,-0.645,-0.64,-0.615,-0.6,-0.62,-0.635,-0.64,-0.635,-0.615,-0.61,-0.615,-0.63,-0.635,-0.635,-0.615,-0.62,-0.62,-0.63,-0.63,-0.63,-0.615,-0.6,-0.605,-0.62,-0.63,-0.63,-0.615,-0.605,-0.625,-0.625,-0.63,-0.62,-0.595,-0.585,-0.61,-0.6,-0.61,-0.585,-0.565,-0.56,-0.565,-0.55,-0.56,-0.55,-0.525,-0.525,-0.525,-0.53,-0.53,-0.515,-0.525,-0.515,-0.525,-0.53,-0.55,-0.545,-0.535,-0.555,-0.555,-0.575,-0.595,-0.59,-0.58,-0.575,-0.59,-0.6,-0.595,-0.595,-0.585,-0.56,-0.57,-0.585,-0.59,-0.585,-0.56,-0.54,-0.56,-0.575,-0.575,-0.555,-0.54,-0.535,-0.555,-0.55,-0.575,-0.6,-0.61,-0.64,-0.645,-0.635,-0.56,-0.38,-0.065,0.395,0.88,1.305,1.61,1.795,1.74,1.375,0.735,0.095,-0.545,-0.89,-0.78,-0.675,-0.67,-0.71,-0.725,-0.705,-0.655,-0.62,-0.57,-0.535,-0.525,-0.5,-0.495,-0.49,-0.49,-0.495,-0.49,-0.48,-0.46,-0.465,-0.47,-0.48,-0.475,-0.46,-0.435,-0.44,-0.44,-0.45,-0.455,-0.45,-0.435,-0.415,-0.425,-0.435,-0.435,-0.44,-0.425,-0.405,-0.415,-0.42,-0.425,-0.41,-0.39,-0.375,-0.385,-0.395,-0.395,-0.385,-0.365,-0.36,-0.35,-0.365,-0.375,-0.36,-0.345,-0.34,-0.34,-0.355,-0.36,-0.345,-0.31,-0.305,-0.295,-0.305,-0.305,-0.285,-0.27,-0.25,-0.245,-0.245,-0.245,-0.22,-0.205,-0.185,-0.18,-0.17,-0.17,-0.155,-0.12,-0.095,-0.08,-0.09,-0.06,-0.045,-0.025,0.005,0.03,0.05,0.07,0.105,0.145,0.175,0.195,0.215,0.24,0.27,0.315,0.345,0.365,0.385,0.415,0.455,0.485,0.52,0.545,0.555,0.56,0.555,0.565,0.55,0.495,0.41,0.33,0.265,0.18,0.105,0.015,-0.075,-0.145,-0.22,-0.24,-0.29,-0.335,-0.385,-0.42,-0.425,-0.435,-0.44,-0.465,-0.48,-0.5,-0.505,-0.495,-0.495,-0.495,-0.505,-0.54,-0.52,-0.51,-0.515,-0.525,-0.535,-0.535,-0.525,-0.515,-0.505,-0.505,-0.53,-0.535,-0.525,-0.515,-0.505,-0.5,-0.525,-0.535,-0.515,-0.515,-0.495,-0.505,-0.515,-0.535,-0.52,-0.505,-0.485,-0.495,-0.51,-0.52,-0.51,-0.5,-0.485,-0.49,-0.515,-0.51,-0.505,-0.495,-0.485,-0.495,-0.515,-0.515,-0.51,-0.505,-0.49,-0.5,-0.52,-0.53,-0.53,-0.5,-0.5,-0.52,-0.54,-0.535,-0.52,-0.51,-0.495,-0.515,-0.535,-0.52,-0.515,-0.505,-0.49,-0.5,-0.53,-0.515,-0.525,-0.51,-0.505,-0.52,-0.52,-0.54,-0.52,-0.51,-0.5,-0.51,-0.545,-0.53,-0.525,-0.51,-0.5,-0.515,-0.53,-0.535,-0.525,-0.52,-0.505,-0.505,-0.525,-0.535,-0.52,-0.51,-0.505,-0.51,-0.53,-0.545,-0.53,-0.51,-0.5,-0.505,-0.52,-0.525,-0.515,-0.5,-0.505,-0.515,-0.52,-0.515,-0.515,-0.495,-0.505,-0.505,-0.505,-0.52,-0.51,-0.505,-0.485,-0.485,-0.5,-0.505,-0.5,-0.495,-0.48,-0.48,-0.495,-0.515,-0.505,-0.485,-0.48,-0.485,-0.495,-0.52,-0.495,-0.495,-0.48,-0.485,-0.49,-0.5,-0.5,-0.485,-0.465,-0.455,-0.485,-0.49,-0.48,-0.46,-0.455,-0.475,-0.49,-0.485,-0.48,-0.46,-0.45,-0.475,-0.475,-0.48,-0.46,-0.445,-0.44,-0.44,-0.46,-0.46,-0.425,-0.43,-0.41,-0.41,-0.42,-0.41,-0.395,-0.4,-0.395,-0.37,-0.385,-0.38,-0.375,-0.375,-0.355,-0.36,-0.385,-0.39,-0.4,-0.385,-0.39,-0.405,-0.435,-0.455,-0.435,-0.42,-0.425,-0.425,-0.435,-0.455,-0.43,-0.42,-0.405,-0.42,-0.43,-0.435,-0.43,-0.415,-0.4,-0.405,-0.42,-0.41,-0.4,-0.385,-0.375,-0.385,-0.415,-0.46,-0.49,-0.485,-0.485,-0.49,-0.455,-0.38,-0.125,0.245,0.73,1.22,1.62,1.885,1.985,1.855,1.45,0.81,0.17,-0.47,-0.72,-0.615,-0.535,-0.535,-0.56,-0.575,-0.56,-0.53,-0.495,-0.45,-0.435,-0.395,-0.365,-0.365,-0.36,-0.36,-0.375,-0.37,-0.37,-0.355,-0.36,-0.345,-0.345,-0.355,-0.345,-0.335,-0.315,-0.33,-0.345,-0.35,-0.34,-0.315,-0.305,-0.31,-0.33,-0.335,-0.325,-0.305,-0.295,-0.3,-0.315,-0.32,-0.31,-0.285,-0.28,-0.29,-0.285,-0.29,-0.29,-0.27,-0.265,-0.265,-0.27,-0.28,-0.275,-0.255,-0.24,-0.245,-0.255,-0.27,-0.255,-0.24,-0.22,-0.215,-0.215,-0.215,-0.22,-0.2,-0.185,-0.195,-0.2,-0.195,-0.19,-0.145,-0.135,-0.15,-0.125,-0.125,-0.115,-0.09,-0.06,-0.045,-0.05,-0.05,-0.015,0.0,0.03,0.03,0.045,0.055,0.065,0.135,0.16,0.185,0.19,0.215,0.245,0.285,0.31,0.335,0.35,0.375,0.4,0.42,0.47,0.49,0.495,0.52,0.545,0.58,0.61,0.635,0.615,0.635,0.635,0.65,0.635,0.635,0.58,0.535,0.51,0.465,0.42,0.35,0.295,0.235,0.19,0.13,0.07,0.02,-0.04,-0.09,-0.13,-0.16,-0.195,-0.24,-0.295,-0.32,-0.34,-0.36,-0.38,-0.385,-0.395,-0.44,-0.435,-0.43,-0.42,-0.445,-0.45,-0.475,-0.465,-0.465,-0.465,-0.465,-0.475,-0.495,-0.485,-0.48,-0.485,-0.48,-0.5,-0.5,-0.475,-0.475,-0.47,-0.48,-0.485,-0.49,-0.48,-0.475,-0.46,-0.465,-0.48,-0.48,-0.48,-0.465,-0.455,-0.465,-0.485,-0.495,-0.475,-0.455,-0.47,-0.46,-0.47,-0.475,-0.47,-0.45,-0.45,-0.455,-0.475,-0.485,-0.485,-0.455,-0.435,-0.45,-0.46,-0.465,-0.46,-0.45,-0.455,-0.45,-0.47,-0.48,-0.47,-0.45,-0.45,-0.455,-0.47,-0.48,-0.475,-0.46,-0.455,-0.455,-0.475,-0.485,-0.48,-0.48,-0.46,-0.46,-0.5,-0.485,-0.485,-0.47,-0.48,-0.48,-0.495,-0.49,-0.485,-0.465,-0.46,-0.47,-0.49,-0.49,-0.49,-0.47,-0.465,-0.475,-0.485,-0.49,-0.48,-0.475,-0.475,-0.465,-0.475,-0.49,-0.47,-0.46,-0.465,-0.47,-0.485,-0.505,-0.485,-0.465,-0.455,-0.455,-0.47,-0.49,-0.465,-0.455,-0.455,-0.46,-0.48,-0.47,-0.47,-0.465,-0.45,-0.455,-0.46,-0.475,-0.47,-0.46,-0.44,-0.455,-0.465,-0.465,-0.455,-0.455,-0.445,-0.455,-0.47,-0.48,-0.455,-0.44,-0.43,-0.45,-0.455,-0.46,-0.455,-0.44,-0.425,-0.435,-0.455,-0.455,-0.465,-0.435,-0.425,-0.435,-0.445,-0.455,-0.43,-0.425,-0.42,-0.425,-0.44,-0.44,-0.425,-0.43,-0.41,-0.42,-0.43,-0.44,-0.43,-0.42,-0.43,-0.415,-0.425,-0.44,-0.415,-0.415,-0.4,-0.405,-0.405,-0.42,-0.395,-0.385,-0.385,-0.37,-0.375,-0.375,-0.365,-0.345,-0.35,-0.345,-0.34,-0.34,-0.345,-0.335,-0.325,-0.325,-0.33,-0.35,-0.355,-0.345,-0.345,-0.36,-0.385,-0.405,-0.39,-0.38,-0.38,-0.39,-0.395,-0.395,-0.395,-0.385,-0.36,-0.38,-0.38,-0.38,-0.365,-0.355,-0.35,-0.36,-0.365,-0.36,-0.335,-0.325,-0.315,-0.32,-0.335,-0.375,-0.405,-0.42,-0.425,-0.445,-0.415,-0.31,-0.105,0.245,0.69,1.17,1.595,1.89,2.06,2.035,1.705,1.065,0.425,-0.215,-0.615,-0.58,-0.485,-0.475,-0.475,-0.505,-0.475,-0.455,-0.44,-0.385,-0.36,-0.32,-0.285,-0.265,-0.26,-0.27,-0.285,-0.285,-0.275,-0.255,-0.25,-0.25,-0.27,-0.275,-0.265,-0.24,-0.23,-0.23,-0.245,-0.255,-0.24,-0.225,-0.205,-0.215,-0.23,-0.23,-0.205,-0.195,-0.18,-0.195,-0.205,-0.21,-0.195,-0.18,-0.175,-0.185,-0.185,-0.185,-0.18,-0.18,-0.16,-0.165,-0.16,-0.165,-0.15,-0.135,-0.135,-0.125,-0.14,-0.14,-0.145,-0.12,-0.11,-0.115,-0.12,-0.11,-0.1,-0.07,-0.06,-0.05,-0.07,-0.065,-0.045,-0.04,-0.01,-0.02,-0.025,-0.015,0.01,0.03,0.05,0.04,0.045,0.06,0.08,0.1,0.14,0.145,0.14,0.16,0.19,0.21,0.25,0.265,0.28,0.295,0.325,0.38,0.405,0.425,0.43,0.45,0.495,0.53,0.56,0.585,0.6,0.615,0.655,0.69,0.72,0.745,0.74,0.77,0.795,0.82,0.835,0.82,0.81,0.79,0.79,0.75,0.735,0.67,0.615,0.535,0.5,0.45,0.395,0.335,0.26,0.195,0.145,0.115,0.08,0.035,-0.01,-0.05,-0.095,-0.09,-0.105,-0.135,-0.165,-0.185,-0.19,-0.2,-0.205,-0.23,-0.245,-0.25,-0.255,-0.245,-0.25,-0.245,-0.27,-0.285,-0.27,-0.26,-0.27,-0.28,-0.295,-0.285,-0.275,-0.26,-0.265,-0.27,-0.295,-0.285,-0.275,-0.265,-0.265,-0.25,-0.27,-0.265,-0.265,-0.255,-0.255,-0.25,-0.26,-0.265,-0.265,-0.24,-0.24,-0.255,-0.26,-0.275,-0.26,-0.25,-0.24,-0.225,-0.25,-0.25,-0.245,-0.24,-0.235,-0.245,-0.26,-0.265,-0.245,-0.245,-0.235,-0.24,-0.26,-0.275,-0.255,-0.25,-0.235,-0.255,-0.26,-0.265,-0.265,-0.255,-0.24,-0.25,-0.27,-0.265,-0.26,-0.24,-0.245,-0.25,-0.255,-0.27,-0.255,-0.245,-0.235,-0.25,-0.26,-0.275,-0.265,-0.25,-0.24,-0.265,-0.275,-0.28,-0.27,-0.26,-0.26,-0.26,-0.28,-0.285,-0.275,-0.26,-0.24,-0.255,-0.26,-0.265,-0.26,-0.24,-0.235,-0.235,-0.255,-0.26,-0.25,-0.24,-0.23,-0.245,-0.27,-0.26,-0.255,-0.235,-0.23,-0.26,-0.255,-0.265,-0.26,-0.245,-0.24,-0.25,-0.255,-0.265,-0.25,-0.235,-0.24,-0.23,-0.25,-0.265,-0.255,-0.24,-0.225,-0.24,-0.255,-0.255,-0.245,-0.24,-0.22,-0.22,-0.24,-0.25,-0.24,-0.225,-0.225,-0.225,-0.235,-0.235,-0.25,-0.225,-0.21,-0.225,-0.24,-0.23,-0.23,-0.22,-0.205,-0.22,-0.215,-0.225,-0.21,-0.205,-0.205,-0.22,-0.22,-0.24,-0.215,-0.2,-0.19,-0.19,-0.195,-0.2,-0.18,-0.16,-0.145,-0.13,-0.155,-0.165,-0.165,-0.14,-0.14,-0.12,-0.125,-0.13,-0.135,-0.13,-0.115,-0.115,-0.125,-0.135,-0.14,-0.14,-0.13,-0.155,-0.185,-0.19,-0.19,-0.18,-0.17,-0.19,-0.185,-0.195,-0.185,-0.17,-0.16,-0.165,-0.175,-0.185,-0.19,-0.18,-0.155,-0.16,-0.165,-0.18,-0.155,-0.145,-0.14,-0.14,-0.145,-0.17,-0.155,-0.16,-0.195,-0.24,-0.265,-0.28,-0.24,-0.17,-0.005,0.245,0.63,1.08,1.535,1.9,2.13,2.21,2.085,1.695,1.055,0.415,-0.225,-0.415,-0.38,-0.3,-0.285,-0.28,-0.28,-0.275,-0.28,-0.26,-0.2,-0.16,-0.11,-0.085,-0.09,-0.08,-0.07,-0.04,-0.03,-0.06,-0.07,-0.075,-0.055,-0.035,-0.03,-0.045,-0.05,-0.05,-0.04,-0.025,-0.015,-0.025,-0.03,-0.02,-0.01,0.0,0.01,0.01,-0.015,-0.01,-0.005,0.01,0.01,0.015,0.0,-0.005,0.0,0.015,0.03,0.03,0.025,0.025,0.04,0.06,0.055,0.05,0.04,0.05,0.05,0.075,0.08,0.085,0.08,0.08,0.085,0.115,0.125,0.12,0.12,0.115,0.13,0.15,0.175,0.16,0.165,0.165,0.185,0.22,0.225,0.24,0.23,0.225,0.24,0.275,0.295,0.305,0.3,0.315,0.34,0.37,0.395,0.41,0.42,0.435,0.465,0.505,0.52,0.545,0.56,0.58,0.625,0.655,0.695,0.71,0.725,0.74,0.765,0.81,0.835,0.855,0.87,0.895,0.93,0.96,0.98,1.0,0.99,0.995,1.015,1.02,1.0,0.98,0.93,0.895,0.85,0.8,0.74,0.665,0.6,0.53,0.475,0.43,0.37,0.315,0.255,0.2,0.15,0.135,0.115,0.065,0.03,0.005,-0.02,-0.02,-0.03,-0.05,-0.07,-0.09,-0.09,-0.105,-0.085,-0.095,-0.115,-0.125,-0.115,-0.11,-0.095,-0.11,-0.11,-0.125,-0.11,-0.105,-0.09,-0.1,-0.115,-0.12,-0.125,-0.105,-0.095,-0.095,-0.105,-0.11,-0.115,-0.105,-0.09,-0.09,-0.115,-0.11,-0.09,-0.08,-0.07,-0.075,-0.095,-0.11,-0.1,-0.08,-0.07,-0.08,-0.085,-0.1,-0.095,-0.075,-0.08,-0.095,-0.095,-0.105,-0.1,-0.08,-0.095,-0.095,-0.11,-0.12,-0.11,-0.09,-0.08,-0.095,-0.095,-0.11,-0.105,-0.095,-0.095,-0.095,-0.12,-0.13,-0.12,-0.11,-0.105,-0.105,-0.115,-0.145,-0.14,-0.12,-0.09,-0.12,-0.13,-0.145,-0.125,-0.115,-0.105,-0.105,-0.125,-0.125,-0.115,-0.115,-0.11,-0.12,-0.135,-0.14,-0.135,-0.12,-0.115,-0.125,-0.125,-0.14,-0.14,-0.12,-0.12,-0.12,-0.13,-0.14,-0.135,-0.12,-0.115,-0.13,-0.135,-0.14,-0.125,-0.115,-0.12,-0.13,-0.135,-0.145,-0.135,-0.115,-0.11,-0.135,-0.145,-0.155,-0.135,-0.115,-0.12,-0.12,-0.125,-0.12,-0.1,-0.08,-0.08,-0.065,-0.075,-0.08,-0.075,-0.055,-0.04,-0.045,-0.045,-0.04,-0.03,-0.02,-0.02,-0.045,-0.07,-0.085,-0.075,-0.065,-0.08,-0.1,-0.125,-0.15,-0.125,-0.12,-0.12,-0.13,-0.145,-0.135,-0.13,-0.115,-0.105,-0.115,-0.13,-0.14,-0.14,-0.115,-0.115,-0.11,-0.12,-0.125,-0.12,-0.1,-0.08,-0.085,-0.095,-0.105,-0.115,-0.145,-0.175,-0.2,-0.21,-0.195,-0.075,0.155,0.505,0.94,1.41,1.815,2.105,2.235,2.135,1.77,1.13,0.49,-0.15,-0.4,-0.345,-0.265,-0.26,-0.285,-0.275,-0.26,-0.235,-0.22,-0.19,-0.145,-0.1,-0.055,-0.04,-0.06,-0.07,-0.075,-0.065,-0.05,-0.04,-0.045,-0.06,-0.07,-0.06,-0.04,-0.03,-0.03,-0.035,-0.06,-0.045,-0.025,-0.02,-0.01,-0.02,-0.035,-0.02,0.0,0.005,-0.005,-0.02,-0.02,0.0,0.005,0.025,0.0,0.0,0.0,0.01,0.025,0.025,0.02,0.005,0.01,0.025,0.045,0.045,0.055,0.04,0.035,0.055,0.07,0.085,0.07,0.075,0.07,0.085,0.105,0.11,0.11,0.105,0.1,0.13,0.145,0.16,0.17,0.165,0.17,0.195,0.215,0.225,0.22,0.205,0.23,0.27,0.295,0.325,0.33,0.32,0.34,0.37,0.42,0.455,0.465,0.465,0.49,0.525,0.575,0.61,0.63,0.65,0.66,0.715,0.745,0.78,0.79,0.805,0.825,0.865,0.88,0.92,0.935,0.945,0.94,0.955,0.98,0.975,0.97,0.925,0.89,0.87,0.85,0.8,0.735,0.655,0.59,0.535,0.49,0.435,0.375,0.3,0.235,0.195,0.16,0.125,0.08,0.04,-0.01,-0.02,-0.035,-0.035,-0.08,-0.1,-0.12,-0.125,-0.13,-0.14,-0.145,-0.175,-0.175,-0.17,-0.145,-0.145,-0.16,-0.17,-0.175,-0.17,-0.16,-0.165,-0.185,-0.18,-0.195,-0.19,-0.17,-0.16,-0.17,-0.175,-0.19,-0.175,-0.16,-0.155,-0.175,-0.185,-0.185,-0.185,-0.155,-0.155,-0.165,-0.19,-0.19,-0.18,-0.165,-0.16,-0.165,-0.185,-0.185,-0.19,-0.16,-0.165,-0.16,-0.195,-0.19,-0.18,-0.165,-0.17,-0.175,-0.195,-0.195,-0.195,-0.18,-0.18,-0.195,-0.2,-0.2,-0.2,-0.18,-0.195,-0.205,-0.215,-0.22,-0.21,-0.195,-0.19,-0.195,-0.205,-0.215,-0.21,-0.195,-0.195,-0.195,-0.215,-0.215,-0.21,-0.205,-0.195,-0.21,-0.24,-0.23,-0.225,-0.205,-0.2,-0.215,-0.225,-0.25,-0.225,-0.22,-0.215,-0.205,-0.215,-0.24,-0.225,-0.215,-0.21,-0.23,-0.25,-0.23,-0.235,-0.22,-0.215,-0.22,-0.23,-0.24,-0.25,-0.225,-0.2,-0.215,-0.23,-0.24,-0.235,-0.235,-0.225,-0.22,-0.25,-0.235,-0.23,-0.215,-0.21,-0.225,-0.235,-0.23,-0.225,-0.225,-0.225,-0.235,-0.25,-0.25,-0.245,-0.22,-0.2,-0.22,-0.23,-0.24,-0.23,-0.215,-0.225,-0.23,-0.235,-0.225,-0.22,-0.215,-0.215,-0.225,-0.23,-0.23,-0.215,-0.21,-0.225,-0.225,-0.23,-0.23,-0.21,-0.195,-0.18,-0.175,-0.19,-0.19,-0.175,-0.16,-0.15,-0.155,-0.145,-0.15,-0.155,-0.14,-0.135,-0.145,-0.16,-0.155,-0.165,-0.16,-0.17,-0.205,-0.225,-0.22,-0.225,-0.215,-0.215,-0.215,-0.23,-0.225,-0.23,-0.22,-0.2,-0.205,-0.235,-0.215,-0.205,-0.2,-0.185,-0.195,-0.2,-0.205,-0.195,-0.185,-0.165,-0.18,-0.2,-0.22,-0.235,-0.255,-0.275,-0.29,-0.27,-0.195,-0.015,0.31,0.755,1.22,1.64,1.935,2.08,2.045,1.735,1.11,0.47,-0.17,-0.545,-0.465,-0.35,-0.335,-0.37,-0.375,-0.37,-0.32,-0.27,-0.24,-0.215,-0.195,-0.17,-0.165,-0.16,-0.155,-0.175,-0.175,-0.16,-0.135,-0.135,-0.155,-0.16,-0.155,-0.145,-0.15,-0.12,-0.14,-0.15,-0.14,-0.135,-0.125,-0.12,-0.125,-0.135,-0.14,-0.125,-0.11,-0.1,-0.105,-0.125,-0.12,-0.11,-0.09,-0.085,-0.09,-0.095,-0.1,-0.09,-0.08,-0.06,-0.065,-0.08,-0.07,-0.07,-0.06,-0.04,-0.05,-0.055,-0.065,-0.045,-0.015,-0.005,-0.02,-0.03,-0.015,0.005,0.01,0.035,0.025,0.025,0.025,0.04,0.08,0.09,0.09,0.095,0.095,0.13,0.15,0.18,0.18,0.18,0.185,0.21,0.265,0.29,0.31,0.32,0.335,0.375,0.42,0.435,0.455,0.47,0.5,0.545,0.59,0.625,0.645,0.655,0.665,0.71,0.755,0.765,0.79,0.79,0.8,0.815,0.845,0.845,0.835,0.8,0.785,0.755,0.725,0.675,0.605,0.56,0.495,0.435,0.39,0.33,0.255,0.185,0.115,0.08,0.04,0.01,-0.035,-0.085,-0.125,-0.15,-0.145,-0.165,-0.19,-0.215,-0.25,-0.24,-0.24,-0.24,-0.25,-0.265,-0.28,-0.27,-0.255,-0.27,-0.285,-0.29,-0.295,-0.29,-0.265,-0.285,-0.29,-0.305,-0.3,-0.295,-0.285,-0.285,-0.285,-0.3,-0.3,-0.29,-0.275,-0.275,-0.29,-0.295,-0.3,-0.285,-0.275,-0.265,-0.28,-0.285,-0.29,-0.285,-0.265,-0.275,-0.285,-0.295,-0.295,-0.3,-0.275,-0.265,-0.285,-0.295,-0.295,-0.29,-0.27,-0.275,-0.3,-0.305,-0.315,-0.3,-0.295,-0.29,-0.305,-0.325,-0.33,-0.33,-0.325,-0.315,-0.32,-0.33,-0.345,-0.34,-0.32,-0.32,-0.325,-0.34,-0.345,-0.335,-0.32,-0.325,-0.32,-0.355,-0.355,-0.34,-0.335,-0.335,-0.34,-0.35,-0.35,-0.35,-0.33,-0.33,-0.335,-0.36,-0.365,-0.35,-0.34,-0.325,-0.34,-0.355,-0.36,-0.36,-0.34,-0.325,-0.34,-0.365,-0.375,-0.355,-0.355,-0.335,-0.35,-0.355,-0.365,-0.35,-0.345,-0.345,-0.355,-0.37,-0.375,-0.37,-0.335,-0.35,-0.345,-0.38,-0.365,-0.36,-0.345,-0.35,-0.35,-0.36,-0.37,-0.37,-0.35,-0.34,-0.365,-0.37,-0.37,-0.365,-0.345,-0.345,-0.345,-0.36,-0.38,-0.375,-0.37,-0.35,-0.355,-0.38,-0.37,-0.365,-0.34,-0.35,-0.35,-0.37,-0.375,-0.37,-0.355,-0.35,-0.38,-0.38,-0.37,-0.38,-0.355,-0.345,-0.375,-0.375,-0.38,-0.38,-0.37,-0.355,-0.36,-0.39,-0.395,-0.37,-0.365,-0.35,-0.36,-0.385,-0.39,-0.38,-0.365,-0.355,-0.355,-0.365,-0.365,-0.355,-0.34,-0.325,-0.32,-0.315,-0.31,-0.305,-0.295,-0.28,-0.28,-0.285,-0.28,-0.285,-0.27,-0.28,-0.29,-0.3,-0.295,-0.3,-0.3,-0.3,-0.325,-0.335,-0.355,-0.355,-0.325,-0.33,-0.325,-0.34,-0.335,-0.33,-0.32,-0.32,-0.335,-0.34,-0.335,-0.32,-0.31,-0.31,-0.31,-0.32,-0.32,-0.31,-0.285,-0.275,-0.285,-0.3,-0.335,-0.345,-0.36,-0.375,-0.38,-0.35,-0.245,-0.005,0.365,0.845,1.345,1.745,2.0,2.08,1.915,1.39,0.75,0.11,-0.53,-0.585,-0.455,-0.395,-0.415,-0.435,-0.43,-0.395,-0.335,-0.28,-0.245,-0.23,-0.23,-0.23,-0.21,-0.195,-0.205,-0.225,-0.215,-0.195,-0.195,-0.18,-0.185,-0.195,-0.19,-0.18,-0.165,-0.155,-0.165,-0.175,-0.175,-0.175,-0.15,-0.135,-0.14,-0.15,-0.15,-0.13,-0.135,-0.115,-0.115,-0.12,-0.12,-0.1,-0.085,-0.065,-0.065,-0.08,-0.075,-0.07,-0.04,-0.03,-0.02,-0.015,-0.01,0.005,0.025,0.055,0.07,0.075,0.08,0.11,0.145,0.16,0.18,0.17,0.195,0.225,0.265,0.3,0.325,0.33,0.365,0.395,0.445,0.47,0.505,0.53,0.555,0.595,0.635,0.665,0.69,0.695,0.72,0.75,0.795,0.84,0.85,0.85,0.87,0.905,0.92,0.93,0.92,0.895,0.855,0.84,0.82,0.775,0.72,0.645,0.59,0.53,0.48,0.42,0.35,0.28,0.22,0.165,0.14,0.085,0.06,0.005,-0.03,-0.06,-0.075,-0.08,-0.105,-0.125,-0.145,-0.15,-0.135,-0.145,-0.16,-0.195,-0.19,-0.195,-0.18,-0.185,-0.185,-0.2,-0.2,-0.2,-0.185,-0.19,-0.195,-0.22,-0.21,-0.185,-0.19,-0.195,-0.185,-0.2,-0.195,-0.19,-0.175,-0.17,-0.185,-0.19,-0.215,-0.21,-0.175,-0.165,-0.17,-0.195,-0.19,-0.18,-0.175,-0.17,-0.165,-0.17,-0.195,-0.185,-0.16,-0.155,-0.175,-0.18,-0.19,-0.185,-0.17,-0.17,-0.19,-0.195,-0.195,-0.195,-0.18,-0.17,-0.18,-0.195,-0.215,-0.19,-0.185,-0.175,-0.185,-0.19,-0.2,-0.195,-0.175,-0.185,-0.2,-0.21,-0.215,-0.22,-0.205,-0.2,-0.19,-0.22,-0.22,-0.21,-0.205,-0.2,-0.205,-0.22,-0.22,-0.21,-0.19,-0.185,-0.19,-0.2,-0.225,-0.21,-0.205,-0.2,-0.2,-0.225,-0.23,-0.215,-0.205,-0.205,-0.205,-0.21,-0.22,-0.225,-0.21,-0.21,-0.205,-0.21,-0.215,-0.205,-0.185,-0.19,-0.2,-0.21,-0.22,-0.205,-0.19,-0.185,-0.2,-0.215,-0.22,-0.21,-0.205,-0.2,-0.205,-0.225,-0.22,-0.205,-0.195,-0.195,-0.195,-0.205,-0.21,-0.205,-0.205,-0.195,-0.21,-0.225,-0.21,-0.195,-0.2,-0.19,-0.19,-0.215,-0.205,-0.2,-0.185,-0.18,-0.19,-0.215,-0.21,-0.2,-0.18,-0.18,-0.195,-0.2,-0.2,-0.19,-0.18,-0.17,-0.185,-0.2,-0.205,-0.18,-0.18,-0.195,-0.2,-0.2,-0.21,-0.19,-0.175,-0.19,-0.205,-0.205,-0.21,-0.195,-0.17,-0.17,-0.17,-0.19,-0.18,-0.185,-0.16,-0.17,-0.18,-0.185,-0.185,-0.18,-0.16,-0.165,-0.19,-0.17,-0.195,-0.18,-0.17,-0.165,-0.17,-0.195,-0.19,-0.17,-0.165,-0.16,-0.14,-0.155,-0.16,-0.145,-0.115,-0.11,-0.105,-0.11,-0.115,-0.105,-0.085,-0.065,-0.065,-0.07,-0.08,-0.08,-0.07,-0.07,-0.085,-0.09,-0.095,-0.08,-0.105,-0.095,-0.115,-0.135,-0.15,-0.135,-0.13,-0.125,-0.12,-0.14,-0.135,-0.13,-0.115,-0.11,-0.115,-0.12,-0.135,-0.105,-0.09,-0.085,-0.095,-0.09,-0.095,-0.075,-0.08,-0.075,-0.075,-0.125,-0.16,-0.175,-0.195,-0.19,-0.15,-0.055,0.155,0.51,0.93,1.355,1.73,1.98,2.13,2.14,1.985,1.575,0.935,0.295,-0.28,-0.375,-0.275,-0.19,-0.185,-0.205,-0.22,-0.21,-0.175,-0.13,-0.105,-0.055,-0.035,0.015,0.035,0.05,0.04,0.035,0.045,0.06,0.07,0.07,0.065,0.055,0.05,0.065,0.075,0.085,0.085,0.065,0.075,0.085,0.115,0.11,0.12,0.1,0.12,0.13,0.155,0.155,0.155,0.135,0.13,0.15,0.17,0.165,0.185,0.165,0.16,0.175,0.19,0.2,0.19,0.19,0.185,0.2,0.235,0.24,0.225,0.215,0.23,0.235,0.265,0.285,0.285,0.28,0.275,0.285,0.315,0.32,0.33,0.32,0.325,0.345,0.375,0.38,0.375,0.37,0.375,0.395,0.425,0.43,0.445,0.445,0.445,0.46,0.48,0.525,0.52,0.525,0.535,0.56,0.585,0.62,0.625,0.63,0.635,0.66,0.71,0.73,0.75,0.76,0.77,0.8,0.84,0.865,0.885,0.895,0.925,0.945,0.975,0.99,1.015,1.035,1.045,1.08,1.105,1.13,1.145,1.145,1.16,1.17,1.175,1.19,1.175,1.14,1.12,1.09,1.07,1.03,0.975,0.91,0.845,0.81,0.775,0.735,0.675,0.625,0.57,0.54,0.52,0.485,0.445,0.39,0.36,0.34,0.335,0.31,0.285,0.26,0.235,0.225,0.225,0.23,0.215,0.195,0.195,0.19,0.205,0.195,0.185,0.18,0.165,0.18,0.17,0.185,0.17,0.17,0.17,0.175,0.19,0.19,0.185,0.175,0.175,0.18,0.18,0.205,0.185,0.18,0.165,0.19,0.205,0.205,0.205,0.175,0.17,0.19,0.21,0.22,0.205,0.205,0.18,0.205,0.23,0.225,0.205,0.19,0.195,0.205,0.225,0.215,0.22,0.21,0.2,0.22,0.225,0.23,0.205,0.19,0.195,0.21,0.2,0.215,0.215,0.205,0.19,0.205,0.21,0.225,0.22,0.2,0.195,0.2,0.205,0.215,0.2,0.185,0.175,0.2,0.21,0.22,0.195,0.18,0.185,0.19,0.205,0.205,0.195,0.18,0.19,0.19,0.215,0.2,0.185,0.19,0.185,0.195,0.215,0.215,0.21,0.175,0.185,0.195,0.205,0.205,0.195,0.175,0.18,0.185,0.215,0.21,0.205,0.185,0.175,0.18,0.205,0.195,0.18,0.175,0.17,0.185,0.19,0.205,0.19,0.175,0.165,0.175,0.2,0.195,0.19,0.165,0.17,0.175,0.195,0.205,0.195,0.17,0.16,0.18,0.195,0.205,0.2,0.17,0.165,0.165,0.19,0.195,0.18,0.175,0.18,0.185,0.2,0.205,0.21,0.185,0.175,0.18,0.205,0.205,0.205,0.195,0.205,0.22,0.23,0.25,0.255,0.24,0.24,0.23,0.245,0.245,0.265,0.26,0.255,0.27,0.265,0.265,0.27,0.245,0.235,0.225,0.235,0.235,0.22,0.195,0.19,0.18,0.195,0.2,0.2,0.18,0.18,0.185,0.195,0.195,0.19,0.175,0.17,0.18,0.205,0.2,0.185,0.175,0.19,0.21,0.2,0.23,0.215,0.205,0.185,0.17,0.15,0.125,0.085,0.06,0.095,0.2,0.39,0.7,1.105,1.525,1.85,2.085,2.175,2.09,1.845,1.305,0.665,0.025,-0.155,-0.075,0.025,0.055,0.02,0.035,0.045,0.065,0.08,0.115,0.16,0.21,0.255,0.265,0.25,0.245,0.25,0.255,0.275,0.275,0.27,0.255,0.235,0.26,0.27,0.275,0.27,0.255,0.255,0.28,0.275,0.29,0.285,0.28,0.27,0.285,0.3,0.3,0.295,0.285,0.285,0.3,0.31,0.31,0.305,0.295,0.29,0.29,0.325,0.305,0.31,0.29,0.295,0.305,0.31,0.325,0.33,0.31,0.315,0.335,0.34,0.345,0.33,0.33,0.325,0.345,0.365,0.365,0.365,0.34,0.345,0.36,0.39,0.395,0.395,0.395,0.41,0.425,0.44,0.455,0.465,0.45,0.455,0.49,0.5,0.515,0.535,0.525,0.545,0.565,0.595,0.605,0.62,0.63,0.645,0.67,0.71,0.725,0.735,0.74,0.755,0.78,0.815,0.845,0.865,0.875,0.9,0.915,0.96,0.975,0.99,0.98,1.02,1.05,1.07,1.085,1.08,1.06,1.06,1.045,1.035,1.015,0.96,0.905,0.87,0.815,0.79,0.73,0.665,0.61,0.555,0.5,0.46,0.425,0.365,0.315,0.28,0.25,0.225,0.195,0.17,0.14,0.11,0.105,0.11,0.095,0.075,0.05,0.035,0.02,0.035,0.035,0.02,-0.005,-0.01,0.0,0.0,-0.005,-0.02,-0.025,-0.04,-0.02,-0.005,-0.015,-0.015,-0.045,-0.045,-0.04,-0.025,-0.02,-0.02,-0.04,-0.04,-0.035,-0.025,-0.025,-0.025,-0.045,-0.05,-0.04,-0.035,-0.02,-0.035,-0.04,-0.045,-0.035,-0.025,-0.02,-0.045,-0.055,-0.06,-0.055,-0.045,-0.045,-0.045,-0.06,-0.07,-0.06,-0.055,-0.045,-0.065,-0.075,-0.085,-0.085,-0.07,-0.06,-0.07,-0.095,-0.115,-0.095,-0.08,-0.08,-0.08,-0.105,-0.105,-0.1,-0.085,-0.085,-0.105,-0.125,-0.125,-0.12,-0.105,-0.09,-0.11,-0.135,-0.135,-0.125,-0.11,-0.115,-0.115,-0.14,-0.16,-0.145,-0.14,-0.135,-0.145,-0.145,-0.15,-0.145,-0.14,-0.14,-0.145,-0.165,-0.17,-0.16,-0.155,-0.155,-0.16,-0.17,-0.18,-0.18,-0.165,-0.16,-0.175,-0.19,-0.19,-0.18,-0.18,-0.175,-0.19,-0.2,-0.205,-0.195,-0.185,-0.185,-0.19,-0.2,-0.23,-0.21,-0.195,-0.195,-0.21,-0.22,-0.24,-0.21,-0.2,-0.2,-0.215,-0.225,-0.23,-0.235,-0.22,-0.235,-0.24,-0.245,-0.235,-0.23,-0.225,-0.22,-0.225,-0.24,-0.245,-0.245,-0.24,-0.225,-0.23,-0.24,-0.255,-0.26,-0.245,-0.225,-0.25,-0.25,-0.27,-0.245,-0.23,-0.22,-0.22,-0.215,-0.22,-0.205,-0.195,-0.205,-0.205,-0.185,-0.195,-0.18,-0.18,-0.185,-0.2,-0.225,-0.21,-0.21,-0.22,-0.22,-0.23,-0.26,-0.28,-0.27,-0.27,-0.275,-0.285,-0.3,-0.31,-0.3,-0.295,-0.275,-0.285,-0.295,-0.295,-0.28,-0.27,-0.265,-0.285,-0.305,-0.3,-0.275,-0.27,-0.265,-0.28,-0.3,-0.32,-0.35,-0.37,-0.41,-0.42,-0.41,-0.315,-0.105,0.25,0.69,1.14,1.47,1.67,1.715,1.575,1.105,0.465,-0.175,-0.715,-0.67,-0.515,-0.46,-0.485,-0.525,-0.505,-0.46,-0.4,-0.345,-0.315,-0.3,-0.305,-0.295,-0.275,-0.27,-0.28,-0.285,-0.285,-0.27,-0.265,-0.255,-0.265,-0.275,-0.29,-0.27,-0.255,-0.245,-0.275,-0.29,-0.27,-0.265,-0.245,-0.26,-0.27,-0.28,-0.28,-0.26,-0.255,-0.265,-0.265,-0.27,-0.275,-0.26,-0.255,-0.26,-0.265,-0.25,-0.26,-0.24,-0.225,-0.22,-0.235,-0.25,-0.26,-0.235,-0.21,-0.22,-0.22,-0.225,-0.215,-0.205,-0.18,-0.175,-0.165,-0.175,-0.165,-0.145,-0.13,-0.115,-0.105,-0.115,-0.125,-0.095,-0.065,-0.045,-0.045,-0.03,-0.015,0.02,0.05,0.075,0.09,0.11,0.135,0.155,0.205,0.22,0.25,0.27,0.275,0.32,0.345,0.38,0.365,0.385,0.415,0.435,0.475,0.495,0.51,0.505,0.53,0.565,0.57,0.555,0.525,0.505,0.47,0.45,0.42,0.395,0.325,0.27,0.215,0.165,0.105,0.035,-0.015,-0.07,-0.125,-0.165,-0.185,-0.23,-0.27,-0.315,-0.35,-0.355,-0.375,-0.39,-0.43,-0.45,-0.47,-0.47,-0.485,-0.485,-0.515,-0.525,-0.54,-0.535,-0.54,-0.54,-0.55,-0.555,-0.565,-0.565,-0.56,-0.56,-0.55,-0.57,-0.575,-0.565,-0.55,-0.54,-0.55,-0.585,-0.59,-0.565,-0.56,-0.555,-0.56,-0.585,-0.575,-0.57,-0.555,-0.55,-0.57,-0.585,-0.58,-0.585,-0.565,-0.565,-0.57,-0.575,-0.585,-0.58,-0.57,-0.56,-0.57,-0.585,-0.595,-0.59,-0.56,-0.565,-0.58,-0.6,-0.61,-0.595,-0.595,-0.585,-0.6,-0.615,-0.61,-0.615,-0.605,-0.605,-0.6,-0.62,-0.615,-0.625,-0.615,-0.615,-0.615,-0.635,-0.645,-0.64,-0.625,-0.615,-0.625,-0.64,-0.66,-0.65,-0.635,-0.63,-0.645,-0.655,-0.65,-0.65,-0.635,-0.63,-0.635,-0.665,-0.66,-0.645,-0.64,-0.65,-0.665,-0.68,-0.675,-0.675,-0.67,-0.655,-0.67,-0.685,-0.695,-0.67,-0.68,-0.67,-0.68,-0.7,-0.69,-0.685,-0.685,-0.68,-0.67,-0.69,-0.7,-0.69,-0.67,-0.685,-0.685,-0.705,-0.71,-0.695,-0.675,-0.675,-0.675,-0.705,-0.695,-0.69,-0.675,-0.675,-0.685,-0.695,-0.705,-0.685,-0.675,-0.68,-0.685,-0.7,-0.7,-0.705,-0.68,-0.685,-0.69,-0.695,-0.7,-0.7,-0.69,-0.695,-0.7,-0.705,-0.705,-0.7,-0.69,-0.68,-0.695,-0.715,-0.71,-0.705,-0.705,-0.69,-0.705,-0.7,-0.695,-0.71,-0.69,-0.69,-0.695,-0.715,-0.72,-0.72,-0.7,-0.705,-0.71,-0.72,-0.72,-0.71,-0.695,-0.695,-0.715,-0.71,-0.71,-0.705,-0.685,-0.685,-0.705,-0.72,-0.73,-0.725,-0.71,-0.7,-0.705,-0.71,-0.725,-0.7,-0.685,-0.675,-0.68,-0.68,-0.69,-0.655,-0.65,-0.635,-0.645,-0.65,-0.655,-0.625,-0.615,-0.61,-0.625,-0.645,-0.66,-0.635,-0.635,-0.625,-0.64,-0.65,-0.665,-0.655,-0.655,-0.67,-0.695,-0.725,-0.715,-0.7,-0.705,-0.69,-0.7,-0.715,-0.72,-0.715,-0.71,-0.695,-0.7,-0.71,-0.71,-0.715,-0.685,-0.675,-0.685,-0.705,-0.7,-0.68,-0.66,-0.665,-0.685,-0.725,-0.755,-0.785,-0.78,-0.765,-0.75,-0.67,-0.49,-0.18,0.215,0.64,1.04,1.35,1.525,1.58,1.425,1.0,0.36,-0.28,-0.92,-1.025,-0.915,-0.84,-0.835,-0.87,-0.87,-0.86,-0.815,-0.79,-0.745,-0.715,-0.68,-0.655,-0.635,-0.645,-0.645,-0.67,-0.66,-0.655,-0.615,-0.62,-0.62,-0.625,-0.62,-0.625,-0.59,-0.595,-0.6,-0.615,-0.61,-0.61,-0.58,-0.585,-0.59,-0.6,-0.605,-0.595,-0.575,-0.57,-0.575,-0.595,-0.61,-0.585,-0.565,-0.575,-0.575,-0.575,-0.585,-0.57,-0.565,-0.555,-0.555,-0.555,-0.57,-0.545,-0.545,-0.545,-0.54,-0.545,-0.535,-0.535,-0.515,-0.52,-0.51,-0.53,-0.525,-0.505,-0.485,-0.475,-0.485,-0.48,-0.47,-0.445,-0.425,-0.425,-0.41,-0.42,-0.415,-0.38,-0.365,-0.34,-0.345,-0.345,-0.34,-0.315,-0.285,-0.255,-0.255,-0.25,-0.225,-0.21,-0.18,-0.14,-0.13,-0.115,-0.095,-0.055,-0.035,-0.005,0.015,0.035,0.055,0.095,0.13,0.155,0.17,0.17,0.185,0.23,0.265,0.29,0.305,0.305,0.315,0.335,0.36,0.365,0.34,0.305,0.275,0.255,0.23,0.18,0.12,0.045,-0.005,-0.055,-0.115,-0.18,-0.245,-0.325,-0.375,-0.41,-0.455,-0.49,-0.555,-0.59,-0.61,-0.625,-0.645,-0.67,-0.685,-0.71,-0.72,-0.74,-0.735,-0.725,-0.735,-0.76,-0.76,-0.75,-0.74,-0.75,-0.77,-0.775,-0.785,-0.76,-0.75,-0.765,-0.77,-0.775,-0.775,-0.76,-0.76,-0.76,-0.775,-0.775,-0.785,-0.775,-0.775,-0.76,-0.775,-0.78,-0.79,-0.785,-0.76,-0.755,-0.765,-0.785,-0.785,-0.78,-0.755,-0.765,-0.755,-0.79,-0.79,-0.765,-0.77,-0.755,-0.77,-0.795,-0.795,-0.79,-0.78,-0.775,-0.77,-0.805,-0.805,-0.79,-0.78,-0.78,-0.795,-0.81,-0.82,-0.805,-0.785,-0.795,-0.795,-0.81,-0.82,-0.81,-0.795,-0.795,-0.805,-0.83,-0.82,-0.815,-0.8,-0.8,-0.815,-0.815,-0.83,-0.82,-0.815,-0.81,-0.795,-0.825,-0.835,-0.805,-0.795,-0.805,-0.815,-0.825,-0.82,-0.815,-0.82,-0.805,-0.83,-0.835,-0.825,-0.82,-0.82,-0.81,-0.825,-0.84,-0.83,-0.84,-0.83,-0.815,-0.83,-0.835,-0.83,-0.83,-0.825,-0.82,-0.83,-0.83,-0.84,-0.815,-0.815,-0.815,-0.82,-0.83,-0.815,-0.805,-0.805,-0.805,-0.815,-0.825,-0.82,-0.82,-0.79,-0.805,-0.815,-0.83,-0.825,-0.81,-0.805,-0.805,-0.815,-0.81,-0.84,-0.81,-0.805,-0.795,-0.805,-0.81,-0.815,-0.805,-0.795,-0.79,-0.795,-0.815,-0.825,-0.805,-0.79,-0.795,-0.805,-0.81,-0.81,-0.81,-0.79,-0.8,-0.81,-0.81,-0.815,-0.805,-0.785,-0.78,-0.79,-0.805,-0.8,-0.795,-0.78,-0.76,-0.765,-0.775,-0.765,-0.735,-0.725,-0.715,-0.725,-0.735,-0.735,-0.715,-0.69,-0.68,-0.695,-0.715,-0.71,-0.7,-0.69,-0.69,-0.72,-0.745,-0.755,-0.75,-0.735,-0.74,-0.755,-0.765,-0.78,-0.76,-0.75,-0.75,-0.75,-0.76,-0.765,-0.755,-0.735,-0.74,-0.74,-0.765,-0.765,-0.74,-0.73,-0.73,-0.735,-0.75,-0.74,-0.73,-0.72,-0.745,-0.785,-0.83,-0.84,-0.83,-0.77,-0.68,-0.45,-0.11,0.365,0.865,1.29,1.555,1.63,1.495,1.085,0.445,-0.195,-0.835,-1.055,-0.965,-0.88,-0.855,-0.86,-0.87,-0.88,-0.865,-0.83,-0.785,-0.715,-0.675,-0.67,-0.68,-0.69,-0.65,-0.645,-0.64,-0.65,-0.665,-0.665,-0.645,-0.625,-0.625,-0.625,-0.635,-0.63,-0.63,-0.625,-0.6,-0.615,-0.615,-0.62,-0.6,-0.59,-0.565,-0.585,-0.59,-0.59,-0.575,-0.565,-0.555,-0.565,-0.57,-0.57,-0.56,-0.54,-0.545,-0.535,-0.555,-0.555,-0.545,-0.52,-0.525,-0.52,-0.53,-0.54,-0.51,-0.485,-0.47,-0.48,-0.495,-0.475,-0.46,-0.445,-0.435,-0.445,-0.435,-0.43,-0.415,-0.385,-0.39,-0.395,-0.38,-0.385,-0.355,-0.315,-0.305,-0.295,-0.29,-0.29,-0.255,-0.215,-0.195,-0.185,-0.185,-0.165,-0.145,-0.1,-0.075,-0.055,-0.04,-0.015,0.025,0.085,0.105,0.12,0.145,0.17,0.205,0.25,0.27,0.295,0.315,0.325,0.365,0.415,0.43,0.44,0.435,0.44,0.445,0.435,0.415,0.37,0.315,0.255,0.22,0.165,0.1,0.015,-0.055,-0.11,-0.17,-0.215,-0.27,-0.315,-0.385,-0.43,-0.45,-0.465,-0.495,-0.525,-0.565,-0.59,-0.585,-0.59,-0.605,-0.615,-0.64,-0.645,-0.63,-0.625,-0.635,-0.655,-0.67,-0.67,-0.66,-0.66,-0.66,-0.655,-0.675,-0.685,-0.67,-0.645,-0.65,-0.65,-0.665,-0.675,-0.66,-0.645,-0.655,-0.655,-0.66,-0.67,-0.66,-0.64,-0.64,-0.64,-0.665,-0.67,-0.655,-0.64,-0.63,-0.64,-0.66,-0.655,-0.63,-0.605,-0.61,-0.615,-0.635,-0.64,-0.625,-0.615,-0.62,-0.63,-0.64,-0.645,-0.645,-0.645,-0.64,-0.635,-0.66,-0.65,-0.645,-0.625,-0.62,-0.645,-0.645,-0.65,-0.645,-0.63,-0.635,-0.645,-0.655,-0.64,-0.635,-0.625,-0.62,-0.635,-0.64,-0.65,-0.625,-0.625,-0.62,-0.635,-0.65,-0.65,-0.65,-0.63,-0.63,-0.63,-0.64,-0.64,-0.63,-0.615,-0.615,-0.63,-0.645,-0.64,-0.64,-0.62,-0.625,-0.64,-0.645,-0.64,-0.625,-0.615,-0.615,-0.61,-0.625,-0.625,-0.61,-0.6,-0.605,-0.62,-0.62,-0.625,-0.62,-0.595,-0.605,-0.615,-0.61,-0.62,-0.6,-0.585,-0.585,-0.605,-0.615,-0.6,-0.585,-0.595,-0.58,-0.58,-0.6,-0.595,-0.585,-0.585,-0.59,-0.605,-0.6,-0.59,-0.595,-0.575,-0.57,-0.56,-0.565,-0.56,-0.55,-0.525,-0.515,-0.52,-0.525,-0.515,-0.5,-0.485,-0.495,-0.505,-0.515,-0.53,-0.53,-0.54,-0.53,-0.56,-0.575,-0.585,-0.57,-0.55,-0.555,-0.555,-0.55,-0.57,-0.56,-0.545,-0.535,-0.54,-0.55,-0.56,-0.545,-0.525,-0.51,-0.525,-0.535,-0.565,-0.605,-0.61,-0.63,-0.615,-0.555,-0.375,-0.015,0.46,0.97,1.41,1.655,1.78,1.635,1.175,0.535,-0.105,-0.745,-0.86,-0.705,-0.64,-0.63,-0.67,-0.69,-0.67,-0.64,-0.585,-0.545,-0.515,-0.495,-0.48,-0.47,-0.455,-0.445,-0.455,-0.455,-0.45,-0.45,-0.43,-0.42,-0.435,-0.44,-0.435,-0.415,-0.395,-0.385,-0.395,-0.42,-0.42,-0.41,-0.38,-0.38,-0.375,-0.39,-0.38,-0.375,-0.375,-0.355,-0.385,-0.365,-0.365,-0.345,-0.34,-0.33,-0.345,-0.34,-0.335,-0.335,-0.3,-0.31,-0.31,-0.335,-0.315,-0.295,-0.275,-0.285,-0.28,-0.285,-0.28,-0.26,-0.24,-0.24,-0.245,-0.235,-0.235,-0.21,-0.18,-0.18,-0.175,-0.175,-0.15,-0.13,-0.125,-0.1,-0.09,-0.105,-0.08,-0.06,-0.03,-0.015,0.0,0.01,0.035,0.05,0.09,0.13,0.145,0.16,0.19,0.225,0.265,0.305,0.32,0.35,0.37,0.405,0.445,0.485,0.495,0.51,0.54,0.56,0.605,0.635,0.64,0.65,0.67,0.685,0.685,0.685,0.66,0.645,0.61,0.575,0.55,0.48,0.42,0.36,0.305,0.23,0.175,0.125,0.07,-0.005,-0.07,-0.1,-0.14,-0.175,-0.225,-0.27,-0.295,-0.295,-0.325,-0.34,-0.355,-0.39,-0.42,-0.41,-0.4,-0.41,-0.425,-0.445,-0.445,-0.43,-0.43,-0.42,-0.445,-0.455,-0.45,-0.445,-0.435,-0.44,-0.445,-0.455,-0.45,-0.445,-0.445,-0.445,-0.435,-0.455,-0.46,-0.435,-0.42,-0.44,-0.455,-0.465,-0.46,-0.43,-0.43,-0.415,-0.43,-0.45,-0.445,-0.435,-0.415,-0.41,-0.435,-0.44,-0.45,-0.43,-0.42,-0.4,-0.425,-0.43,-0.425,-0.415,-0.4,-0.395,-0.405,-0.415,-0.42,-0.405,-0.39,-0.395,-0.41,-0.42,-0.42,-0.41,-0.395,-0.39,-0.405,-0.415,-0.42,-0.43,-0.395,-0.385,-0.415,-0.415,-0.42,-0.405,-0.395,-0.39,-0.39,-0.42,-0.43,-0.425,-0.405,-0.4,-0.41,-0.42,-0.425,-0.41,-0.4,-0.4,-0.405,-0.435,-0.425,-0.415,-0.405,-0.395,-0.42,-0.43,-0.43,-0.435,-0.415,-0.405,-0.425,-0.44,-0.425,-0.425,-0.415,-0.425,-0.42,-0.42,-0.425,-0.415,-0.41,-0.41,-0.42,-0.43,-0.435,-0.43,-0.415,-0.41,-0.425,-0.44,-0.435,-0.425,-0.42,-0.44,-0.445,-0.45,-0.45,-0.425,-0.4,-0.4,-0.42,-0.42,-0.42,-0.415,-0.405,-0.405,-0.415,-0.445,-0.43,-0.41,-0.405,-0.41,-0.415,-0.445,-0.425,-0.415,-0.4,-0.4,-0.41,-0.43,-0.43,-0.415,-0.4,-0.395,-0.41,-0.415,-0.415,-0.4,-0.385,-0.37,-0.375,-0.39,-0.39,-0.36,-0.345,-0.33,-0.34,-0.34,-0.345,-0.34,-0.315,-0.305,-0.315,-0.325,-0.33,-0.325,-0.3,-0.315,-0.32,-0.35,-0.355,-0.355,-0.36,-0.365,-0.385,-0.41,-0.415,-0.39,-0.37,-0.385,-0.39,-0.405,-0.4,-0.395,-0.375,-0.37,-0.38,-0.385,-0.39,-0.39,-0.38,-0.37,-0.385,-0.37,-0.365,-0.365,-0.345,-0.33,-0.35,-0.395,-0.425,-0.45,-0.45,-0.425,-0.415,-0.345,-0.155,0.195,0.7,1.205,1.615,1.885,2.01,1.94,1.595,0.955,0.315,-0.325,-0.725,-0.615,-0.5,-0.495,-0.52,-0.545,-0.525,-0.495,-0.44,-0.39,-0.365,-0.35,-0.335,-0.33,-0.31,-0.32,-0.325,-0.345,-0.335,-0.33,-0.325,-0.3,-0.315,-0.315,-0.32,-0.305,-0.29,-0.29,-0.3,-0.3,-0.305,-0.29,-0.28,-0.27,-0.265,-0.295,-0.28,-0.265,-0.255,-0.24,-0.265,-0.265,-0.255,-0.255,-0.235,-0.225,-0.24,-0.26,-0.235,-0.225,-0.22,-0.21,-0.215,-0.23,-0.235,-0.225,-0.195,-0.2,-0.195,-0.205,-0.2,-0.185,-0.165,-0.155,-0.16,-0.18,-0.17,-0.155,-0.125,-0.115,-0.115,-0.12,-0.13,-0.105,-0.065,-0.06,-0.06,-0.055,-0.055,-0.035,0.0,0.015,0.0,0.015,0.03,0.05,0.085,0.115,0.125,0.14,0.16,0.2,0.235,0.25,0.27,0.3,0.32,0.365,0.4,0.42,0.445,0.46,0.475,0.51,0.555,0.575,0.59,0.605,0.625,0.635,0.675,0.695,0.71,0.715,0.715,0.705,0.715,0.7,0.645,0.595,0.56,0.525,0.485,0.425,0.365,0.3,0.24,0.19,0.125,0.075,0.005,-0.05,-0.1,-0.135,-0.145,-0.195,-0.22,-0.255,-0.285,-0.3,-0.305,-0.31,-0.325,-0.36,-0.37,-0.36,-0.36,-0.365,-0.4,-0.415,-0.4,-0.405,-0.39,-0.4,-0.4,-0.445,-0.435,-0.42,-0.4,-0.405,-0.42,-0.435,-0.44,-0.425,-0.4,-0.41,-0.415,-0.43,-0.42,-0.42,-0.41,-0.405,-0.425,-0.445,-0.44,-0.415,-0.41,-0.415,-0.43,-0.44,-0.43,-0.415,-0.415,-0.405,-0.425,-0.43,-0.435,-0.405,-0.4,-0.405,-0.415,-0.44,-0.43,-0.425,-0.405,-0.41,-0.425,-0.445,-0.425,-0.435,-0.415,-0.405,-0.42,-0.435,-0.445,-0.43,-0.41,-0.415,-0.43,-0.44,-0.445,-0.44,-0.43,-0.43,-0.44,-0.465,-0.46,-0.45,-0.455,-0.435,-0.44,-0.455,-0.465,-0.455,-0.435,-0.44,-0.455,-0.465,-0.465,-0.475,-0.445,-0.44,-0.455,-0.47,-0.465,-0.455,-0.44,-0.45,-0.45,-0.47,-0.465,-0.46,-0.44,-0.435,-0.45,-0.47,-0.47,-0.455,-0.435,-0.44,-0.46,-0.48,-0.47,-0.46,-0.445,-0.46,-0.465,-0.47,-0.475,-0.465,-0.46,-0.445,-0.47,-0.48,-0.485,-0.47,-0.45,-0.45,-0.475,-0.485,-0.49,-0.47,-0.455,-0.465,-0.465,-0.485,-0.49,-0.49,-0.46,-0.46,-0.47,-0.48,-0.5,-0.475,-0.46,-0.465,-0.465,-0.485,-0.49,-0.47,-0.45,-0.46,-0.48,-0.49,-0.485,-0.485,-0.46,-0.47,-0.475,-0.485,-0.485,-0.485,-0.46,-0.475,-0.485,-0.49,-0.49,-0.475,-0.445,-0.455,-0.48,-0.51,-0.495,-0.475,-0.465,-0.455,-0.47,-0.485,-0.495,-0.47,-0.455,-0.465,-0.465,-0.485,-0.48,-0.47,-0.455,-0.455,-0.46,-0.465,-0.48,-0.465,-0.455,-0.445,-0.46,-0.475,-0.465,-0.46,-0.44,-0.425,-0.43,-0.44,-0.42,-0.405,-0.38,-0.385,-0.395,-0.405,-0.385,-0.36,-0.355,-0.355,-0.37,-0.385,-0.39,-0.39,-0.38,-0.375,-0.38,-0.415,-0.43,-0.43,-0.425,-0.42,-0.43,-0.45,-0.455,-0.435,-0.425,-0.42,-0.43,-0.45,-0.445,-0.435,-0.415,-0.41,-0.415,-0.425,-0.42,-0.405,-0.395,-0.39,-0.39,-0.4,-0.415,-0.38,-0.375,-0.39,-0.435,-0.475,-0.51,-0.51,-0.48,-0.41,-0.28,-0.015,0.385,0.855,1.31,1.665,1.9,1.97,1.865,1.545,0.935,0.295,-0.345,-0.725,-0.68,-0.575,-0.53,-0.535,-0.57,-0.575,-0.57,-0.515,-0.465,-0.41,-0.395,-0.375,-0.365,-0.36,-0.345,-0.345,-0.345,-0.35,-0.355,-0.345,-0.335,-0.33,-0.335,-0.355,-0.35,-0.33,-0.32,-0.315,-0.315,-0.34,-0.335,-0.31,-0.31,-0.305,-0.305,-0.32,-0.315,-0.3,-0.275,-0.28,-0.3,-0.31,-0.305,-0.285,-0.265,-0.27,-0.28,-0.285,-0.285,-0.27,-0.255,-0.265,-0.255,-0.285,-0.28,-0.255,-0.255,-0.235,-0.25,-0.26,-0.26,-0.25,-0.225,-0.215,-0.215,-0.21,-0.205,-0.195,-0.18,-0.17,-0.165,-0.185,-0.18,-0.16,-0.13,-0.125,-0.13,-0.13,-0.12,-0.095,-0.085,-0.065,-0.08,-0.07,-0.055,-0.03,0.005,0.02,0.03,0.02,0.04,0.065,0.095,0.12,0.135,0.13,0.165,0.19,0.235,0.26,0.28,0.265,0.31,0.355,0.385,0.41,0.425,0.445,0.45,0.505,0.53,0.545,0.565,0.575,0.59,0.61,0.63,0.675,0.665,0.65,0.67,0.69,0.685,0.675,0.63,0.595,0.545,0.51,0.48,0.435,0.36,0.29,0.225,0.185,0.145,0.095,0.02,-0.035,-0.08,-0.11,-0.135,-0.165,-0.21,-0.26,-0.28,-0.29,-0.295,-0.32,-0.35,-0.375,-0.39,-0.39,-0.375,-0.39,-0.405,-0.43,-0.415,-0.415,-0.405,-0.415,-0.43,-0.435,-0.44,-0.445,-0.435,-0.425,-0.45,-0.445,-0.445,-0.43,-0.435,-0.455,-0.465,-0.46,-0.46,-0.45,-0.44,-0.43,-0.445,-0.455,-0.465,-0.445,-0.435,-0.44,-0.455,-0.48,-0.48,-0.46,-0.455,-0.445,-0.45,-0.46,-0.465,-0.465,-0.435,-0.435,-0.455,-0.455,-0.455,-0.445,-0.43,-0.435,-0.455,-0.455,-0.455,-0.45,-0.445,-0.44,-0.45,-0.46,-0.465,-0.45,-0.445,-0.445,-0.46,-0.48,-0.48,-0.465,-0.45,-0.455,-0.465,-0.485,-0.475,-0.47,-0.465,-0.46,-0.485,-0.49,-0.485,-0.47,-0.465,-0.465,-0.465,-0.485,-0.485,-0.475,-0.47,-0.46,-0.475,-0.495,-0.49,-0.48,-0.48,-0.46,-0.48,-0.48,-0.5,-0.49,-0.475,-0.475,-0.485,-0.505,-0.5,-0.485,-0.475,-0.48,-0.49,-0.5,-0.515,-0.5,-0.48,-0.485,-0.49,-0.505,-0.52,-0.51,-0.48,-0.495,-0.5,-0.51,-0.51,-0.5,-0.485,-0.49,-0.485,-0.505,-0.51,-0.495,-0.495,-0.48,-0.49,-0.51,-0.505,-0.485,-0.485,-0.485,-0.485,-0.51,-0.525,-0.495,-0.5,-0.5,-0.5,-0.505,-0.52,-0.505,-0.475,-0.48,-0.5,-0.505,-0.5,-0.505,-0.485,-0.48,-0.49,-0.51,-0.505,-0.495,-0.48,-0.48,-0.485,-0.505,-0.505,-0.49,-0.475,-0.47,-0.485,-0.5,-0.5,-0.495,-0.48,-0.485,-0.495,-0.515,-0.52,-0.5,-0.495,-0.49,-0.49,-0.495,-0.485,-0.485,-0.45,-0.44,-0.435,-0.455,-0.44,-0.42,-0.405,-0.4,-0.4,-0.41,-0.425,-0.405,-0.4,-0.43,-0.43,-0.435,-0.45,-0.47,-0.475,-0.485,-0.495,-0.495,-0.5,-0.49,-0.475,-0.475,-0.465,-0.48,-0.48,-0.48,-0.46,-0.455,-0.46,-0.48,-0.475,-0.45,-0.43,-0.445,-0.47,-0.495,-0.535,-0.55,-0.55,-0.54,-0.495,-0.38,-0.135,0.265,0.735,1.185,1.57,1.785,1.84,1.695,1.27,0.63,-0.01,-0.65,-0.805,-0.7,-0.6,-0.6,-0.62,-0.655,-0.66,-0.62,-0.565,-0.52,-0.49,-0.475,-0.435,-0.425,-0.41,-0.405,-0.415,-0.415,-0.425,-0.41,-0.405,-0.395,-0.405,-0.425,-0.42,-0.4,-0.39,-0.385,-0.395,-0.405,-0.405,-0.385,-0.375,-0.385,-0.385,-0.395,-0.39,-0.365,-0.365,-0.37,-0.375,-0.37,-0.37,-0.355,-0.335,-0.335,-0.355,-0.36,-0.35,-0.33,-0.315,-0.31,-0.32,-0.345,-0.35,-0.315,-0.305,-0.295,-0.32,-0.32,-0.315,-0.3,-0.285,-0.27,-0.285,-0.295,-0.29,-0.27,-0.25,-0.24,-0.245,-0.25,-0.245,-0.225,-0.21,-0.18,-0.2,-0.2,-0.19,-0.17,-0.14,-0.135,-0.135,-0.12,-0.095,-0.08,-0.05,-0.03,-0.035,-0.03,-0.02,0.025,0.055,0.09,0.09,0.105,0.13,0.165,0.205,0.24,0.265,0.255,0.305,0.34,0.375,0.39,0.42,0.445,0.46,0.49,0.515,0.545,0.545,0.56,0.555,0.575,0.6,0.595,0.565,0.55,0.51,0.49,0.47,0.41,0.345,0.27,0.205,0.14,0.105,0.045,-0.02,-0.095,-0.15,-0.195,-0.21,-0.26,-0.305,-0.35,-0.395,-0.4,-0.41,-0.415,-0.445,-0.48,-0.48,-0.49,-0.485,-0.49,-0.5,-0.545,-0.535,-0.52,-0.505,-0.515,-0.53,-0.55,-0.545,-0.54,-0.515,-0.51,-0.525,-0.555,-0.55,-0.545,-0.53,-0.515,-0.535,-0.545,-0.545,-0.54,-0.525,-0.525,-0.54,-0.545,-0.545,-0.53,-0.51,-0.515,-0.53,-0.545,-0.53,-0.525,-0.5,-0.505,-0.51,-0.535,-0.54,-0.515,-0.505,-0.495,-0.515,-0.555,-0.55,-0.545,-0.51,-0.52,-0.525,-0.54,-0.54,-0.53,-0.52,-0.535,-0.545,-0.555,-0.565,-0.55,-0.545,-0.535,-0.54,-0.55,-0.565,-0.55,-0.56,-0.54,-0.545,-0.56,-0.56,-0.555,-0.545,-0.545,-0.555,-0.57,-0.57,-0.55,-0.545,-0.555,-0.57,-0.62,-0.585,-0.555,-0.54,-0.545,-0.56,-0.585,-0.595,-0.575,-0.55,-0.545,-0.555,-0.575,-0.57,-0.58,-0.56,-0.565,-0.58,-0.59,-0.585,-0.575,-0.565,-0.56,-0.565,-0.585,-0.585,-0.565,-0.56,-0.57,-0.565,-0.58,-0.585,-0.57,-0.56,-0.57,-0.575,-0.595,-0.59,-0.58,-0.58,-0.565,-0.585,-0.58,-0.58,-0.575,-0.56,-0.56,-0.57,-0.575,-0.585,-0.575,-0.555,-0.565,-0.565,-0.585,-0.585,-0.56,-0.55,-0.545,-0.565,-0.57,-0.56,-0.535,-0.505,-0.505,-0.51,-0.53,-0.52,-0.505,-0.48,-0.485,-0.485,-0.51,-0.525,-0.505,-0.485,-0.505,-0.52,-0.54,-0.545,-0.545,-0.535,-0.545,-0.56,-0.575,-0.57,-0.57,-0.54,-0.54,-0.555,-0.57,-0.575,-0.555,-0.54,-0.545,-0.54,-0.56,-0.56,-0.55,-0.53,-0.52,-0.535,-0.54,-0.545,-0.535,-0.525,-0.58,-0.605,-0.635,-0.66,-0.615,-0.53,-0.37,-0.08,0.31,0.805,1.285,1.65,1.815,1.765,1.46,0.825,0.185,-0.455,-0.845,-0.775,-0.685,-0.665,-0.665,-0.665,-0.655,-0.65,-0.62,-0.585,-0.52,-0.47,-0.46,-0.465,-0.49,-0.48,-0.46,-0.47,-0.46,-0.455,-0.47,-0.465,-0.45,-0.435,-0.425,-0.435,-0.455,-0.45,-0.44,-0.44,-0.415,-0.415,-0.435,-0.43,-0.415,-0.4,-0.4,-0.405,-0.41,-0.415,-0.405,-0.37,-0.37,-0.385,-0.405,-0.395,-0.36,-0.355,-0.36,-0.37,-0.37,-0.375,-0.35,-0.34,-0.33,-0.355,-0.36,-0.335,-0.335,-0.315,-0.32,-0.32,-0.315,-0.31,-0.285,-0.275,-0.275,-0.28,-0.275,-0.26,-0.24,-0.22,-0.215,-0.2,-0.2,-0.18,-0.175,-0.135,-0.12,-0.115,-0.11,-0.09,-0.055,-0.05,-0.015,-0.015,0.005,0.035,0.075,0.11,0.145,0.145,0.165,0.195,0.235,0.28,0.305,0.32,0.35,0.375,0.41,0.44,0.475,0.485,0.495,0.535,0.56,0.585,0.61,0.615,0.605,0.58,0.6,0.585,0.545,0.5,0.445,0.38,0.335,0.285,0.205,0.135,0.045,-0.02,-0.06,-0.105,-0.155,-0.21,-0.26,-0.29,-0.31,-0.345,-0.37,-0.405,-0.435,-0.445,-0.46,-0.455,-0.475,-0.515,-0.52,-0.52,-0.525,-0.51,-0.51,-0.535,-0.535,-0.55,-0.545,-0.54,-0.53,-0.54,-0.55,-0.56,-0.535,-0.53,-0.525,-0.525,-0.55,-0.54,-0.54,-0.515,-0.51,-0.535,-0.54,-0.535,-0.53,-0.505,-0.505,-0.525,-0.53,-0.53,-0.52,-0.525,-0.5,-0.51,-0.52,-0.515,-0.51,-0.49,-0.5,-0.51,-0.52,-0.515,-0.51,-0.5,-0.51,-0.505,-0.525,-0.53,-0.51,-0.5,-0.51,-0.515,-0.525,-0.52,-0.52,-0.5,-0.5,-0.52,-0.525,-0.53,-0.52,-0.5,-0.51,-0.51,-0.53,-0.535,-0.52,-0.515,-0.52,-0.52,-0.53,-0.54,-0.535,-0.52,-0.52,-0.545,-0.53,-0.545,-0.535,-0.525,-0.53,-0.535,-0.55,-0.54,-0.535,-0.53,-0.525,-0.525,-0.56,-0.55,-0.55,-0.525,-0.53,-0.53,-0.555,-0.55,-0.54,-0.525,-0.52,-0.535,-0.545,-0.535,-0.525,-0.515,-0.52,-0.525,-0.53,-0.53,-0.52,-0.515,-0.505,-0.52,-0.53,-0.535,-0.52,-0.505,-0.505,-0.515,-0.53,-0.525,-0.515,-0.5,-0.515,-0.525,-0.53,-0.525,-0.52,-0.495,-0.5,-0.505,-0.515,-0.52,-0.51,-0.49,-0.505,-0.505,-0.52,-0.515,-0.495,-0.49,-0.49,-0.495,-0.505,-0.52,-0.48,-0.48,-0.465,-0.48,-0.465,-0.46,-0.455,-0.42,-0.43,-0.435,-0.44,-0.44,-0.405,-0.395,-0.405,-0.42,-0.43,-0.435,-0.42,-0.405,-0.395,-0.42,-0.44,-0.465,-0.45,-0.45,-0.455,-0.475,-0.475,-0.475,-0.47,-0.46,-0.47,-0.47,-0.48,-0.475,-0.46,-0.45,-0.45,-0.465,-0.485,-0.475,-0.46,-0.44,-0.435,-0.425,-0.445,-0.445,-0.425,-0.415,-0.42,-0.465,-0.505,-0.535,-0.545,-0.545,-0.515,-0.465,-0.31,-0.07,0.335,0.77,1.2,1.56,1.805,1.935,1.895,1.67,1.115,0.475,-0.165,-0.75,-0.735,-0.615,-0.565,-0.58,-0.61,-0.605,-0.575,-0.535,-0.495,-0.455,-0.42,-0.4,-0.4,-0.375,-0.37,-0.4,-0.395,-0.395,-0.38,-0.36,-0.345,-0.365,-0.385,-0.375,-0.36,-0.34,-0.335,-0.35,-0.37,-0.375,-0.34,-0.315,-0.325,-0.335,-0.345,-0.345,-0.325,-0.31,-0.29,-0.315,-0.32,-0.32,-0.3,-0.285,-0.285,-0.29,-0.285,-0.29,-0.27,-0.27,-0.26,-0.265,-0.275,-0.265,-0.255,-0.24,-0.25,-0.245,-0.245,-0.25,-0.225,-0.21,-0.205,-0.195,-0.205,-0.21,-0.19,-0.16,-0.155,-0.17,-0.165,-0.165,-0.135,-0.115,-0.1,-0.09,-0.11,-0.085,-0.065,-0.04,-0.03,-0.01,-0.005,0.01,0.035,0.055,0.08,0.09,0.11,0.12,0.15,0.21,0.225,0.245,0.27,0.295,0.345,0.37,0.42,0.43,0.44,0.46,0.515,0.55,0.585,0.59,0.6,0.64,0.665,0.705,0.72,0.715,0.72,0.725,0.735,0.74,0.705,0.655,0.61,0.575,0.535,0.495,0.42,0.345,0.24,0.18,0.125,0.08,0.015,-0.045,-0.115,-0.155,-0.18,-0.2,-0.22,-0.25,-0.295,-0.305,-0.305,-0.305,-0.305,-0.34,-0.35,-0.365,-0.36,-0.355,-0.355,-0.375,-0.39,-0.39,-0.375,-0.365,-0.37,-0.38,-0.385,-0.385,-0.38,-0.365,-0.375,-0.37,-0.385,-0.395,-0.38,-0.365,-0.375,-0.375,-0.395,-0.385,-0.37,-0.35,-0.35,-0.365,-0.37,-0.37,-0.355,-0.33,-0.35,-0.35,-0.365,-0.365,-0.34,-0.345,-0.34,-0.35,-0.355,-0.355,-0.35,-0.345,-0.34,-0.36,-0.355,-0.36,-0.355,-0.345,-0.345,-0.355,-0.37,-0.37,-0.345,-0.335,-0.345,-0.37,-0.38,-0.375,-0.355,-0.335,-0.345,-0.36,-0.37,-0.38,-0.355,-0.35,-0.345,-0.355,-0.36,-0.37,-0.35,-0.335,-0.345,-0.36,-0.38,-0.365,-0.355,-0.35,-0.34,-0.36,-0.365,-0.365,-0.355,-0.33,-0.33,-0.345,-0.36,-0.36,-0.345,-0.33,-0.325,-0.34,-0.35,-0.34,-0.34,-0.32,-0.325,-0.34,-0.36,-0.35,-0.34,-0.325,-0.31,-0.34,-0.35,-0.36,-0.35,-0.335,-0.33,-0.335,-0.34,-0.34,-0.335,-0.32,-0.325,-0.33,-0.335,-0.335,-0.335,-0.32,-0.31,-0.325,-0.335,-0.335,-0.32,-0.295,-0.3,-0.32,-0.325,-0.315,-0.305,-0.3,-0.295,-0.31,-0.31,-0.31,-0.305,-0.285,-0.3,-0.31,-0.33,-0.315,-0.3,-0.29,-0.275,-0.28,-0.29,-0.275,-0.25,-0.23,-0.235,-0.24,-0.255,-0.235,-0.215,-0.21,-0.22,-0.23,-0.26,-0.24,-0.235,-0.22,-0.215,-0.23,-0.26,-0.275,-0.285,-0.27,-0.28,-0.285,-0.295,-0.31,-0.285,-0.27,-0.28,-0.28,-0.29,-0.285,-0.265,-0.245,-0.26,-0.265,-0.285,-0.28,-0.26,-0.245,-0.245,-0.245,-0.265,-0.255,-0.235,-0.23,-0.25,-0.305,-0.34,-0.36,-0.34,-0.3,-0.21,-0.04,0.28,0.735,1.24,1.675,1.97,2.135,2.13,1.93,1.485,0.845,0.205,-0.405,-0.525,-0.45,-0.38,-0.36,-0.38,-0.4,-0.4,-0.37,-0.335,-0.27,-0.23,-0.195,-0.195,-0.19,-0.175,-0.165,-0.16,-0.18,-0.19,-0.185,-0.155,-0.135,-0.135,-0.15,-0.155,-0.155,-0.145,-0.115,-0.125,-0.135,-0.13,-0.125,-0.12,-0.11,-0.1,-0.135,-0.145,-0.135,-0.1,-0.09,-0.085,-0.09,-0.1,-0.105,-0.09,-0.07,-0.055,-0.09,-0.085,-0.08,-0.06,-0.045,-0.03,-0.04,-0.055,-0.05,-0.04,-0.015,-0.005,-0.015,-0.035,-0.01,0.005,0.015,0.03,0.02,0.02,0.025,0.04,0.075,0.075,0.075,0.065,0.08,0.095,0.115,0.135,0.13,0.145,0.155,0.17,0.205,0.22,0.22,0.24,0.26,0.275,0.305,0.335,0.355,0.355,0.38,0.42,0.465,0.48,0.49,0.51,0.53,0.58,0.62,0.645,0.655,0.68,0.705,0.755,0.795,0.815,0.83,0.84,0.86,0.9,0.91,0.935,0.935,0.93,0.91,0.9,0.905,0.865,0.81,0.765,0.7,0.665,0.615,0.555,0.475,0.39,0.32,0.28,0.23,0.18,0.12,0.07,0.015,0.005,0.0,-0.045,-0.09,-0.105,-0.115,-0.12,-0.13,-0.125,-0.155,-0.17,-0.17,-0.17,-0.165,-0.165,-0.18,-0.195,-0.195,-0.185,-0.175,-0.18,-0.195,-0.205,-0.21,-0.185,-0.175,-0.185,-0.185,-0.2,-0.2,-0.185,-0.18,-0.185,-0.205,-0.215,-0.205,-0.2,-0.19,-0.18,-0.2,-0.2,-0.205,-0.185,-0.165,-0.165,-0.18,-0.205,-0.205,-0.19,-0.18,-0.175,-0.195,-0.21,-0.2,-0.19,-0.18,-0.18,-0.2,-0.21,-0.195,-0.185,-0.17,-0.18,-0.21,-0.22,-0.215,-0.2,-0.195,-0.2,-0.215,-0.215,-0.21,-0.205,-0.2,-0.19,-0.2,-0.215,-0.215,-0.195,-0.19,-0.185,-0.19,-0.225,-0.215,-0.205,-0.18,-0.18,-0.185,-0.21,-0.19,-0.185,-0.17,-0.17,-0.175,-0.2,-0.195,-0.19,-0.175,-0.18,-0.19,-0.2,-0.2,-0.175,-0.17,-0.18,-0.185,-0.205,-0.195,-0.19,-0.17,-0.17,-0.19,-0.2,-0.2,-0.185,-0.165,-0.165,-0.18,-0.195,-0.195,-0.18,-0.17,-0.165,-0.18,-0.18,-0.18,-0.17,-0.14,-0.165,-0.165,-0.19,-0.18,-0.165,-0.15,-0.145,-0.175,-0.19,-0.19,-0.18,-0.155,-0.15,-0.175,-0.185,-0.18,-0.16,-0.15,-0.15,-0.17,-0.175,-0.17,-0.165,-0.155,-0.155,-0.16,-0.17,-0.175,-0.16,-0.145,-0.145,-0.17,-0.16,-0.17,-0.15,-0.145,-0.14,-0.145,-0.15,-0.155,-0.14,-0.13,-0.135,-0.145,-0.155,-0.16,-0.15,-0.13,-0.13,-0.14,-0.15,-0.15,-0.14,-0.11,-0.13,-0.12,-0.145,-0.135,-0.12,-0.095,-0.09,-0.09,-0.1,-0.105,-0.08,-0.05,-0.065,-0.075,-0.065,-0.065,-0.045,-0.02,-0.03,-0.05,-0.065,-0.08,-0.055,-0.02,-0.035,-0.055,-0.075,-0.09,-0.075,-0.07,-0.075,-0.095,-0.11,-0.11,-0.1,-0.08,-0.115,-0.095,-0.11,-0.105,-0.09,-0.06,-0.07,-0.08,-0.09,-0.105,-0.085,-0.07,-0.065,-0.075,-0.07,-0.07,-0.055,-0.04,-0.03,-0.055,-0.08,-0.14,-0.135,-0.15,-0.155,-0.13,-0.035,0.135,0.48,0.93,1.405,1.81,2.09,2.285,2.28,2.05,1.495,0.855,0.215,-0.38,-0.35,-0.21,-0.17,-0.205,-0.235,-0.23,-0.225,-0.17,-0.13,-0.095,-0.06,-0.025,-0.005,0.015,0.01,-0.02,-0.02,-0.01,-0.005,0.015,0.015,0.015,0.0,0.005,0.015,0.025,0.02,0.015,0.015,0.025,0.035,0.045,0.055,0.05,0.03,0.035,0.05,0.075,0.07,0.06,0.045,0.05,0.065,0.07,0.085,0.075,0.065,0.055,0.09,0.11,0.11,0.085,0.095,0.075,0.115,0.125,0.13,0.12,0.11,0.115,0.115,0.16,0.165,0.165,0.155,0.16,0.18,0.205,0.2,0.2,0.195,0.195,0.205,0.24,0.255,0.25,0.255,0.28,0.305,0.325,0.335,0.34,0.34,0.335,0.39,0.405,0.435,0.445,0.45,0.47,0.505,0.55,0.56,0.585,0.605,0.63,0.66,0.7,0.73,0.76,0.785,0.81,0.85,0.88,0.9,0.91,0.935,0.955,0.985,1.015,1.04,1.035,1.045,1.045,1.055,1.055,1.03,0.995,0.94,0.905,0.86,0.83,0.77,0.705,0.635,0.57,0.525,0.47,0.405,0.345,0.295,0.245,0.22,0.19,0.14,0.11,0.085,0.05,0.02,0.03,0.01,-0.02,-0.055,-0.065,-0.045,-0.045,-0.045,-0.06,-0.085,-0.07,-0.075,-0.065,-0.07,-0.08,-0.1,-0.09,-0.09,-0.08,-0.075,-0.08,-0.115,-0.1,-0.095,-0.09,-0.09,-0.11,-0.095,-0.1,-0.085,-0.075,-0.075,-0.08,-0.095,-0.1,-0.07,-0.07,-0.06,-0.09,-0.095,-0.09,-0.07,-0.07,-0.06,-0.07,-0.085,-0.08,-0.07,-0.055,-0.07,-0.065,-0.07,-0.085,-0.06,-0.055,-0.065,-0.085,-0.08,-0.095,-0.08,-0.07,-0.075,-0.08,-0.085,-0.1,-0.08,-0.065,-0.08,-0.11,-0.105,-0.1,-0.1,-0.08,-0.1,-0.095,-0.105,-0.11,-0.095,-0.085,-0.09,-0.1,-0.095,-0.11,-0.095,-0.09,-0.1,-0.1,-0.11,-0.115,-0.1,-0.08,-0.09,-0.095,-0.105,-0.1,-0.105,-0.09,-0.11,-0.11,-0.12,-0.125,-0.105,-0.105,-0.09,-0.095,-0.11,-0.12,-0.105,-0.08,-0.1,-0.105,-0.11,-0.125,-0.1,-0.095,-0.1,-0.115,-0.11,-0.115,-0.1,-0.085,-0.095,-0.1,-0.115,-0.115,-0.1,-0.075,-0.08,-0.095,-0.12,-0.11,-0.085,-0.085,-0.075,-0.105,-0.11,-0.11,-0.1,-0.085,-0.085,-0.095,-0.12,-0.125,-0.12,-0.1,-0.1,-0.09,-0.12,-0.12,-0.085,-0.075,-0.085,-0.095,-0.1,-0.1,-0.08,-0.065,-0.075,-0.08,-0.07,-0.08,-0.04,-0.02,-0.015,-0.035,-0.05,-0.05,-0.025,-0.01,0.0,-0.02,-0.045,-0.035,-0.015,-0.01,-0.005,-0.025,-0.045,-0.06,-0.045,-0.05,-0.06,-0.09,-0.1,-0.105,-0.095,-0.095,-0.085,-0.09,-0.105,-0.12,-0.09,-0.075,-0.08,-0.095,-0.11,-0.09,-0.07,-0.055,-0.06,-0.075,-0.075,-0.08,-0.06,-0.035,-0.06,-0.09,-0.15,-0.17,-0.18,-0.165,-0.13,0.025,0.3,0.74,1.28,1.765,2.115,2.245,2.18,1.825,1.185,0.545,-0.095,-0.425,-0.335,-0.24,-0.2,-0.23,-0.24,-0.245,-0.24,-0.2,-0.155,-0.075,-0.06,-0.045,-0.04,-0.035,-0.035,-0.02,-0.015,-0.025,-0.03,-0.025,-0.02,0.0,0.01,-0.005,-0.005,-0.015,0.005,0.03,0.02,0.02,0.0,0.0,0.025,0.03,0.04,0.035,0.01,0.03,0.035,0.055,0.05,0.045,0.04,0.045,0.065,0.065,0.065,0.07,0.05,0.06,0.085,0.1,0.1,0.085,0.075,0.08,0.1,0.115,0.105,0.11,0.1,0.095,0.14,0.15,0.165,0.155,0.17,0.165,0.19,0.205,0.215,0.215,0.23,0.23,0.255,0.275,0.285,0.29,0.295,0.31,0.345,0.36,0.37,0.365,0.395,0.405,0.445,0.47,0.505,0.515,0.52,0.535,0.58,0.615,0.645,0.665,0.695,0.715,0.75,0.805,0.825,0.835,0.845,0.875,0.925,0.955,0.985,0.99,1.005,1.03,1.055,1.085,1.1,1.09,1.08,1.05,1.05,1.04,1.0,0.94,0.865,0.815,0.775,0.735,0.65,0.58,0.515,0.44,0.405,0.37,0.305,0.245,0.2,0.16,0.14,0.12,0.095,0.06,0.025,0.01,0.0,0.0,-0.025,-0.035,-0.05,-0.055,-0.065,-0.05,-0.06,-0.095,-0.085,-0.1,-0.085,-0.075,-0.08,-0.09,-0.105,-0.1,-0.1,-0.09,-0.08,-0.095,-0.1,-0.1,-0.08,-0.075,-0.075,-0.09,-0.105,-0.1,-0.09,-0.08,-0.07,-0.08,-0.105,-0.09,-0.09,-0.065,-0.09,-0.09,-0.09,-0.085,-0.075,-0.055,-0.065,-0.08,-0.075,-0.095,-0.07,-0.06,-0.065,-0.07,-0.08,-0.085,-0.075,-0.06,-0.085,-0.075,-0.095,-0.09,-0.09,-0.06,-0.075,-0.095,-0.09,-0.095,-0.07,-0.055,-0.08,-0.09,-0.105,-0.105,-0.09,-0.065,-0.08,-0.095,-0.095,-0.1,-0.09,-0.08,-0.08,-0.09,-0.105,-0.11,-0.095,-0.075,-0.1,-0.105,-0.115,-0.11,-0.11,-0.095,-0.095,-0.12,-0.12,-0.115,-0.09,-0.09,-0.085,-0.11,-0.115,-0.12,-0.1,-0.08,-0.09,-0.105,-0.115,-0.125,-0.11,-0.105,-0.11,-0.12,-0.14,-0.13,-0.11,-0.105,-0.1,-0.12,-0.125,-0.125,-0.105,-0.1,-0.105,-0.105,-0.14,-0.12,-0.115,-0.1,-0.095,-0.12,-0.125,-0.11,-0.11,-0.09,-0.1,-0.105,-0.12,-0.11,-0.09,-0.08,-0.08,-0.1,-0.11,-0.115,-0.095,-0.085,-0.08,-0.09,-0.115,-0.1,-0.09,-0.075,-0.075,-0.085,-0.1,-0.08,-0.07,-0.045,-0.035,-0.035,-0.035,-0.045,-0.04,-0.02,0.0,-0.01,-0.045,-0.04,-0.015,-0.015,-0.01,-0.025,-0.055,-0.06,-0.065,-0.065,-0.08,-0.095,-0.105,-0.1,-0.08,-0.07,-0.095,-0.095,-0.105,-0.09,-0.08,-0.065,-0.065,-0.07,-0.095,-0.08,-0.075,-0.055,-0.055,-0.065,-0.07,-0.07,-0.045,-0.06,-0.08,-0.115,-0.155,-0.185,-0.17,-0.145,-0.08,0.09,0.385,0.815,1.33,1.795,2.14,2.335,2.33,2.13,1.635,0.995,0.355,-0.285,-0.425,-0.295,-0.225,-0.21,-0.24,-0.24,-0.225,-0.22,-0.17,-0.105,-0.07,-0.045,-0.045,-0.05,-0.04,-0.015,-0.02,-0.04,-0.04,-0.055,-0.035,-0.015,-0.02,-0.015,-0.02,-0.02,0.0,0.025,0.01,-0.02,-0.015,-0.015,0.015,0.03,0.025,0.0,0.005,-0.01,0.02,0.045,0.04,0.025,0.015,0.015,0.03,0.04,0.06,0.06,0.04,0.04,0.05,0.09,0.08,0.065,0.07,0.07,0.085,0.105,0.1,0.105,0.105,0.105,0.125,0.14,0.135,0.145,0.13,0.14,0.145,0.175,0.19,0.18,0.175,0.195,0.215,0.22,0.24,0.23,0.235,0.25,0.295,0.315,0.315,0.305,0.315,0.335,0.37,0.395,0.42,0.435,0.445,0.47,0.495,0.54,0.57,0.575,0.59,0.615,0.655,0.695,0.73,0.75,0.775,0.8,0.835,0.87,0.905,0.92,0.94,0.97,1.0,1.035,1.065,1.065,1.065,1.1,1.115,1.12,1.105,1.085,1.05,1.015,0.985,0.965,0.895,0.845,0.78,0.71,0.66,0.615,0.545,0.465,0.395,0.335,0.315,0.28,0.24,0.185,0.145,0.13,0.11,0.1,0.075,0.055,0.02,0.01,0.02,0.015,0.01,-0.005,-0.025,-0.025,-0.02,-0.01,-0.015,-0.03,-0.035,-0.04,-0.03,-0.005,-0.01,-0.035,-0.04,-0.045,-0.02,-0.02,-0.015,-0.015,-0.025,-0.015,-0.005,0.005,0.005,-0.005,-0.02,-0.015,-0.005,0.02,0.01,-0.005,-0.005,0.0,0.02,0.03,0.03,0.03,0.015,0.015,0.035,0.045,0.055,0.045,0.025,0.035,0.035,0.06,0.055,0.04,0.025,0.035,0.05,0.07,0.065,0.05,0.045,0.035,0.045,0.055,0.065,0.045,0.04,0.035,0.045,0.07,0.065,0.055,0.04,0.045,0.065,0.07,0.055,0.04,0.04,0.045,0.045,0.065,0.075,0.06,0.06,0.06,0.075,0.08,0.085,0.06,0.045,0.055,0.075,0.09,0.075,0.07,0.065,0.065,0.08,0.085,0.095,0.075,0.075,0.06,0.09,0.1,0.1,0.1,0.085,0.09,0.105,0.11,0.11,0.1,0.075,0.095,0.11,0.115,0.11,0.105,0.09,0.085,0.125,0.13,0.125,0.12,0.105,0.115,0.115,0.14,0.135,0.125,0.11,0.11,0.125,0.135,0.135,0.13,0.125,0.13,0.135,0.155,0.15,0.135,0.13,0.13,0.15,0.155,0.15,0.14,0.125,0.145,0.15,0.175,0.18,0.165,0.16,0.155,0.175,0.175,0.17,0.16,0.15,0.16,0.175,0.19,0.185,0.17,0.165,0.17,0.19,0.19,0.205,0.185,0.185,0.18,0.19,0.205,0.2,0.195,0.19,0.195,0.21,0.22,0.215,0.205,0.21,0.215,0.24,0.25,0.255,0.255,0.255,0.27,0.29,0.305,0.3,0.3,0.29,0.31,0.32,0.315,0.31,0.29,0.29,0.295,0.3,0.3,0.285,0.26,0.235,0.235,0.235,0.26,0.245,0.235,0.225,0.24,0.245,0.27,0.26,0.255,0.25,0.25,0.26,0.285,0.275,0.265,0.27,0.27,0.295,0.305,0.305,0.275,0.25,0.225,0.2,0.185,0.18,0.19,0.27,0.45,0.785,1.235,1.685,2.09,2.385,2.525,2.515,2.285,1.705,1.065,0.425,-0.065,0.02,0.155,0.185,0.15,0.13,0.15,0.19,0.255,0.3,0.335,0.35,0.36,0.37,0.375,0.385,0.36,0.35,0.36,0.38,0.395,0.385,0.385,0.375,0.37,0.38,0.405,0.405,0.41,0.39,0.395,0.41,0.43,0.435,0.41,0.405,0.405,0.42,0.45,0.44,0.425,0.425,0.425,0.44,0.465,0.475,0.46,0.45,0.455,0.465,0.49,0.49,0.48,0.475,0.475,0.495,0.505,0.5,0.5,0.485,0.505,0.52,0.545,0.55,0.54,0.54,0.555,0.575,0.605,0.615,0.59,0.595,0.615,0.635,0.655,0.675,0.665,0.665,0.685,0.705,0.73,0.745,0.74,0.755,0.785,0.795,0.85,0.85,0.86,0.87,0.9,0.935,0.97,0.995,1.01,1.01,1.04,1.07,1.125,1.14,1.155,1.175,1.195,1.225,1.28,1.3,1.305,1.32,1.345,1.38,1.395,1.385,1.36,1.355,1.34,1.335,1.315,1.26,1.195,1.135,1.085,1.04,0.985,0.93,0.855,0.785,0.725,0.69,0.66,0.605,0.55,0.49,0.46,0.445,0.43,0.4,0.365,0.32,0.325,0.34,0.34,0.32,0.295,0.275,0.285,0.28,0.3,0.29,0.28,0.265,0.26,0.265,0.265,0.25,0.25,0.245,0.245,0.26,0.26,0.27,0.24,0.245,0.25,0.275,0.275,0.275,0.245,0.23,0.24,0.24,0.27,0.275,0.255,0.235,0.255,0.275,0.28,0.275,0.265,0.255,0.26,0.255,0.285,0.27,0.265,0.245,0.25,0.265,0.27,0.27,0.27,0.235,0.24,0.255,0.255,0.26,0.235,0.235,0.24,0.245,0.26,0.25,0.24,0.225,0.23,0.225,0.25,0.245,0.23,0.22,0.205,0.22,0.235,0.22,0.22,0.205,0.21,0.205,0.22,0.23,0.2,0.19,0.2,0.215,0.235,0.22,0.2,0.195,0.185,0.21,0.22,0.2,0.19,0.185,0.175,0.195,0.195,0.2,0.18,0.175,0.19,0.2,0.205,0.195,0.18,0.175,0.17,0.19,0.19,0.18,0.165,0.175,0.18,0.175,0.2,0.185,0.17,0.16,0.15,0.175,0.18,0.175,0.16,0.165,0.165,0.18,0.195,0.185,0.175,0.15,0.16,0.165,0.185,0.175,0.17,0.155,0.155,0.155,0.175,0.17,0.165,0.16,0.17,0.165,0.195,0.19,0.17,0.155,0.16,0.16,0.17,0.165,0.165,0.14,0.165,0.17,0.18,0.175,0.165,0.15,0.14,0.16,0.165,0.165,0.14,0.135,0.16,0.16,0.18,0.185,0.165,0.16,0.165,0.175,0.19,0.2,0.205,0.205,0.205,0.205,0.22,0.23,0.235,0.23,0.19,0.22,0.22,0.23,0.22,0.195,0.18,0.185,0.185,0.17,0.155,0.135,0.135,0.135,0.15,0.145,0.125,0.13,0.135,0.145,0.165,0.16,0.155,0.13,0.13,0.135,0.165,0.155,0.145,0.14,0.15,0.165,0.165,0.14,0.09,0.035,0.02,0.025,0.085,0.2,0.44,0.81,1.335,1.815,2.17,2.325,2.29,1.995,1.355,0.715,0.075,-0.21,-0.115,-0.025,-0.02,-0.03,-0.03,-0.025,0.0,0.05,0.11,0.15,0.2,0.195,0.19,0.185,0.195,0.205,0.215,0.21,0.205,0.18,0.19,0.2,0.235,0.225,0.22,0.195,0.21,0.23,0.24,0.24,0.225,0.23,0.24,0.245,0.255,0.265,0.24,0.23,0.235,0.26,0.275,0.27,0.255,0.255,0.245,0.265,0.27,0.265,0.265,0.25,0.27,0.285,0.3,0.295,0.295,0.28,0.3,0.315,0.335,0.34,0.325,0.315,0.325,0.345,0.365,0.37,0.37,0.365,0.37,0.405,0.425,0.435,0.435,0.435,0.465,0.48,0.5,0.505,0.515,0.525,0.545,0.57,0.595,0.605,0.615,0.625,0.645,0.68,0.71,0.735,0.74,0.745,0.785,0.82,0.855,0.885,0.895,0.92,0.935,0.975,1.015,1.04,1.04,1.055,1.08,1.12,1.14,1.155,1.145,1.14,1.125,1.11,1.1,1.05,1.02,0.955,0.895,0.84,0.785,0.725,0.665,0.58,0.525,0.47,0.42,0.38,0.32,0.275,0.225,0.195,0.2,0.165,0.125,0.09,0.07,0.07,0.065,0.06,0.035,0.025,-0.005,0.01,0.03,0.015,-0.005,-0.025,-0.015,-0.005,0.005,-0.005,-0.015,-0.035,-0.015,-0.005,-0.005,-0.005,-0.02,-0.02,-0.025,-0.015,0.01,0.0,-0.02,-0.025,-0.015,-0.005,0.005,0.005,-0.02,-0.02,-0.025,-0.01,0.0,-0.01,-0.01,-0.03,-0.025,-0.025,-0.01,-0.01,-0.02,-0.02,-0.035,-0.04,-0.01,-0.02,-0.03,-0.05,-0.045,-0.04,-0.04,-0.045,-0.06,-0.07,-0.065,-0.055,-0.04,-0.04,-0.045,-0.065,-0.06,-0.055,-0.04,-0.05,-0.06,-0.08,-0.075,-0.065,-0.045,-0.05,-0.075,-0.085,-0.085,-0.065,-0.06,-0.065,-0.075,-0.085,-0.09,-0.075,-0.065,-0.07,-0.075,-0.09,-0.075,-0.085,-0.065,-0.07,-0.085,-0.09,-0.095,-0.075,-0.07,-0.075,-0.085,-0.095,-0.1,-0.09,-0.065,-0.075,-0.085,-0.09,-0.085,-0.09,-0.075,-0.07,-0.085,-0.095,-0.095,-0.08,-0.075,-0.07,-0.08,-0.09,-0.095,-0.085,-0.07,-0.07,-0.08,-0.095,-0.09,-0.085,-0.075,-0.08,-0.08,-0.075,-0.075,-0.045,-0.03,-0.03,-0.025,-0.03,-0.04,-0.025,-0.005,0.0,-0.015,-0.01,0.005,-0.015,-0.015,0.0,-0.02,-0.025,-0.035,-0.04,-0.035,-0.045,-0.065,-0.1,-0.105,-0.085,-0.09,-0.08,-0.095,-0.105,-0.105,-0.085,-0.075,-0.08,-0.095,-0.11,-0.095,-0.09,-0.085,-0.075,-0.1,-0.105,-0.1,-0.07,-0.05,-0.06,-0.07,-0.075,-0.07,-0.07,-0.075,-0.1,-0.145,-0.19,-0.19,-0.18,-0.11,0.01,0.235,0.58,1.015,1.44,1.795,2.045,2.155,2.135,1.905,1.45,0.81,0.17,-0.36,-0.415,-0.315,-0.23,-0.21,-0.235,-0.255,-0.26,-0.225,-0.175,-0.13,-0.08,-0.06,-0.05,-0.035,-0.025,-0.025,-0.02,-0.035,-0.045,-0.045,-0.02,-0.005,-0.01,-0.015,-0.025,-0.03,-0.02,-0.005,-0.005,-0.02,-0.025,-0.015,0.0,0.0,0.005,-0.01,-0.015,-0.005,0.005,0.015,0.015,0.0,-0.005,-0.01,0.015,0.025,0.035,0.01,0.0,0.02,0.025,0.05,0.04,0.04,0.03,0.035,0.05,0.055,0.065,0.045,0.04,0.05,0.065,0.08,0.08,0.07,0.065,0.075,0.105,0.105,0.115,0.1,0.11,0.115,0.14,0.155,0.155,0.165,0.155,0.18,0.2,0.23,0.225,0.23,0.235,0.26,0.28,0.31,0.325,0.32,0.32,0.34,0.36,0.405,0.425,0.43,0.435,0.47,0.495,0.55,0.565,0.595,0.605,0.63,0.665,0.715,0.735,0.75,0.765,0.795,0.84,0.87,0.885,0.885,0.905,0.93,0.95,0.975,1.0,0.98,0.96,0.95,0.935,0.925,0.885,0.825,0.76,0.715,0.66,0.605,0.55,0.485,0.4,0.345,0.305,0.255,0.2,0.14,0.09,0.05,0.025,0.005,-0.01,-0.055,-0.08,-0.08,-0.095,-0.09,-0.11,-0.13,-0.15,-0.16,-0.155,-0.145,-0.15,-0.16,-0.18,-0.16,-0.165,-0.145,-0.155,-0.165,-0.18,-0.175,-0.16,-0.16,-0.16,-0.16,-0.16,-0.17,-0.16,-0.13,-0.14,-0.16,-0.165,-0.155,-0.15,-0.14,-0.135,-0.135,-0.155,-0.14,-0.125,-0.115,-0.11,-0.135,-0.135,-0.135,-0.12,-0.105,-0.11,-0.115,-0.11,-0.11,-0.105,-0.08,-0.095,-0.085,-0.1,-0.095,-0.09,-0.08,-0.085,-0.1,-0.115,-0.095,-0.08,-0.08,-0.085,-0.095,-0.1,-0.085,-0.075,-0.06,-0.065,-0.085,-0.1,-0.085,-0.075,-0.065,-0.06,-0.08,-0.08,-0.08,-0.055,-0.045,-0.05,-0.065,-0.065,-0.075,-0.055,-0.04,-0.035,-0.055,-0.07,-0.075,-0.04,-0.025,-0.025,-0.035,-0.055,-0.045,-0.015,-0.025,-0.01,-0.025,-0.04,-0.035,-0.035,-0.01,-0.015,-0.015,-0.035,-0.03,-0.015,0.015,0.005,0.0,-0.01,-0.005,0.005,0.025,0.02,0.01,0.0,0.005,0.025,0.05,0.04,0.03,0.02,0.025,0.035,0.05,0.05,0.03,0.02,0.03,