[1.1065957585609956,1.0758685185013237,0.994867799272036,0.8733446673657903,0.7226520255810094,0.5546389179952701,0.3816505299653076,0.21638626673332237,0.06809824712720035,-0.05873311868900927,-0.16122643202406028,-0.23793605661606854,-0.2888521186325126,-0.3154005066702342,-0.32044287175543695,-0.3082766273436869,-0.28399211519975437,-0.2518199807140917,-0.21600641684499605,-0.18002496069639046,-0.1465401530706394,-0.11740753846854908,-0.0936736650893672,-0.07557608483078336,-0.06254335328892888,-0.05319502975837635,-0.04594362999524383,-0.04042647259895565,-0.036147015342717366,-0.032661915732273776,-0.02959539652633058,-0.02663924573655317,-0.02355281662756777,-0.02016302771696056,-0.01636436277527855,-0.012118870826028378,-0.0074561661456778346,-0.0024650562105165328,0.002903400184431586,0.00871518252618075,0.014995122768826943,0.0217639687932739,0.029038384407233223,0.03683094934522488,0.04515015926857631,0.05400042576542317,0.06338207635070894,0.07329135446618508,0.08372041948041094,0.09465734668875399,0.10608612731338954,0.11798666850330071,0.13033479333427883,0.1431026983875653,0.15631752537348215,0.1699477012023379,0.18390440253415527,0.19810040275227725,0.21245007196336765,0.22686937699740936,0.241275881407707,0.2555887454708839,0.2697287261868848,0.2836181772789745,0.2971810491937372,0.3103428891010784,0.3230308408942237,0.33517364518971804,0.3467016393274278,0.35754675737053876,0.3676425301055575,0.37692408504231056,0.3853281464139446,0.39279305449821345,0.39925894605072343,0.40466763815783546,0.40896253919699743,0.41208865426897856,0.41399258519786786,0.4145798345870674,0.4136901582893299,0.41139263683660193,0.40777614273867185,0.4029278857518016,0.39693341287872685,0.3898766083686574,0.3818396937172766,0.3729032276667421,0.36314610620568455,0.3526455625692092,0.3414771672388946,0.32971482794279344,0.31743078965543164,0.3046956345978103,0.2915782822374029,0.2781459892881572,0.2644643497104954,0.2505972947113124,0.2366070927439774,0.22255434950833455,0.20849800795069984,0.19449534826386455,0.18060198788709278,0.1668718815061233,0.15335732105316846,0.14010893570691413,0.1271756918925202,0.1146048932816206,0.10244218079232231,0.09073153708277566,0.07951540016846688,0.06883467225448986,0.05872859905531604,0.049234763531890935,0.04038687198579468,0.03217950147194294,0.024582214432164413,0.017565728578481748,0.011101494508900004,0.005161695707406132,-0.0002807514560309533,-0.005252197725459825,-0.009778260958947377,-0.01388382612857838,-0.01759304532045548,-0.0209293377346993,-0.023915389685448638,-0.026573154600859593,-0.02892385302310692,-0.030987972608383037,-0.032785268126898116,-0.034334761462880545,-0.03565474161457648,-0.036762764694250105,-0.03767565392818354,-0.038409499656676914,-0.038979659334048025,-0.03940075752863297,-0.0396866859227856,-0.03985060331287768,-0.03990493560929905,-0.03986137583645728,-0.03973088413277818,-0.039523687750705305,-0.03924928105670003,-0.03891642713531517,-0.03853327988548184,-0.038107409814456414,-0.037645617802156715,-0.037153970025357176,-0.03663779977485025,-0.03610170745544635,-0.03554956058597364,-0.034984493799278364,-0.034398692869427976,-0.03377000425483663,-0.03311066332134945,-0.0324329091000673,-0.03174665286350406,-0.03105947812558692,-0.030376640641656457,-0.029701068408466366,-0.029033361664183778,-0.0283717928883888,-0.027712306802075176,-0.02704852036764952,-0.026371722788932038,-0.025670875511156068,-0.024932612220968108,-0.024141238846428,-0.02327873355700903,-0.02232474676359744,-0.021256601118492972,-0.02004929151540849,-0.01867548508947007,-0.01710552121721731,-0.015307411516602799,-0.013246839846992417,-0.010887162309165657,-0.008189407245314738,-0.005112275239045554,-0.001612139192482113,0.002356894205787243,0.0068428738102497035,0.011896146341383107,0.01756938627825169,0.02391759585850683,0.030998105078386535,0.03887057169271524,0.04759698121490449,0.057275930928641014,0.06814804986154413,0.0800843416329799,0.09288973296793426,0.10637392670620759,0.12035140180241499,0.1346414133259846,0.1490679924611599,0.163459946506999,0.17765085887737325,0.1914790891009697,0.2047877728212884,0.21742482179664457,0.22924292390016782,0.2400995431198016,0.24985691955830372,0.2583820694332472,0.265546785077018,0.2712276349368173,0.2753059635746606,0.2776678916673776,0.27820431600661244,0.27681090949882325,0.27338812116528305,0.2678462586242034,0.2602737272579958,0.25096100057101284,0.24019422185874417,0.22824294539873727,0.21536083531382552,0.20178501550139946,0.1877358221598162,0.1734168136490566,0.15901477051353374,0.14469969548209327,0.13062481346801308,0.11692657156900388,0.10372463906720834,0.09112190742920204,0.07920449030599226,0.06804172353301996,0.0576861651301574,0.04817359530170974,0.0395230164364142,0.031736653107441046,0.024800050672818996,0.018694045481115196,0.013250374512019797,0.008195773528240222,0.003211973306737696,-0.0020643003612729168,-0.008041326670322278,-0.015172389800687466,-0.023955778918391755,-0.03493478817520434,-0.0486977167086406,-0.06588110206511329,-0.08664167993810357,-0.10943804719624203,-0.13217827160556261,-0.15247640631162052,-0.16765248983949255,-0.17473254609377503,-0.17044858435858773,-0.15123874677894183,-0.11325854442238577,-0.05416786372082388,0.028016456702962465,0.1342198066946103,0.2628233164386684,0.4096638564585968,0.5680340376167681,0.728682211114472,0.8798124684918911,1.0070846416281387,1.0940915805791631,1.13332491783063,1.1244435853402988,1.0694300791689109,0.9725809462003454,0.8405067841416183,0.6821322415228813,0.5086960176974247,0.3337508628416685,0.17294130049791923,0.03391556542853752,-0.08209828715596601,-0.17351995869045983,-0.23985849456156935,-0.28171228410767696,-0.3007690606189216,-0.29980590133719925,-0.28268922745616304,-0.25437480412122226,-0.22029589353442627,-0.18397322520623613,-0.14821178657130482,-0.11518771708586101,-0.08642712364675413,-0.0628060805914541,-0.044550573687871506,-0.03123569429443487,-0.021785845322010874,-0.01455036121060228,-0.008754035230758317,-0.0040790810666990335,-0.00013330126910628603,0.0034171213743241775,0.0068476238388815785,0.010375262862840363,0.014158714947460217,0.018298276356986054,0.022835863118647805,0.027755011022661202,0.032990122997041904,0.0385875033118578,0.044600212947901716,0.05105269619964087,0.05796567456345375,0.06535614673763186,0.07323738862237911,0.08161895331981157,0.0905066711339578,0.09990264957075862,0.10980527333806711,0.12020920434564912,0.1311053817051824,0.14248102173025726,0.15431961793637694,0.1666009410409556,0.17931143916624043,0.19247668943271307,0.20603609794784045,0.21991432558992427,0.23403661758808464,0.24832880352225986,0.2627172889488225,0.27712876882501114,0.2914901561292126,0.3057289253297709,0.3197731352458471,0.3335514290474221,0.3469930342552946,0.36002776274108184,0.3725860107272194,0.3845987587869611,0.39599757184437917,0.4067145991743643,0.4166825744026255,0.4258348155056904,0.4341052248109045,0.44142828899643194,0.4477390790912551,0.4529732504751749,0.45706704287881106,0.45995037246303716,0.4614862721892856,0.46168328457781777,0.4605967375077409,0.45828252168093286,0.4547970906220421,0.45019746067848726,0.44454121102045835,0.43788648364091487,0.4302919833555876,0.4218169778029773,0.41252129744435523,0.4024653355637638,0.3917100482680155,0.3803169544866933,0.36834813597215066,0.35586623729951183,0.342934464531835,0.32961641001005015,0.3159758795842602,0.3020772705485494,0.2879856308565895,0.2737665768321033,0.2594862876215831,0.24521150519429485,0.23100953434227212,0.21694824268031931,0.20309606064601202,0.18952198149969607,0.17629556132448793,0.16348691902627444,0.1511667363337132,0.13940625779823193,0.12825701776118292,0.11768066543195585,0.10766511962505806,0.09820283057063242,0.08928534936315155,0.08090332796141739,0.07304651918856161,0.06570377673204529,0.05886305514365898,0.05251140983952273,0.046634997100086284,0.04121907407012873,0.036247998758758206,0.03170523003941379,0.02757332764986268,0.02383395219220201,0.020467865132858518,0.01745492880258829,0.01477410639647722,0.012403461973940391,0.01032016054059702,0.008500822719264969,0.006922337453493216,0.005560934355981839,0.004391943903759883,0.0033897974381865374,0.0025280271649500375,0.0017794841305034267,0.0011399870450126233,0.0006101513564312185,0.00018020062270150444,-0.00015907717373280297,-0.0004163296259260831,-0.0005996399024319513,-0.000716526747302068,-0.0007739444800868617,-0.0007782829958352631,-0.0007353677650947972,-0.0006504598339114598,-0.000528255823829738,-0.00037288793189296874,-0.0001879239306426814,2.3632831880789074e-05,0.0002593434321387228,0.0005173333710937218,0.0007962925742098573,0.0010954753914528435,0.0014147005972894502,0.0017543513906883822,0.0021153753951194346,0.0024992846585539137,0.002908155653464587,0.003344629276825807,0.00381191085011321,0.004319599802427935,0.004877688352677077,0.005481929940062489,0.00613084692181016,0.0068251476870507055,0.007568518409503691,0.008367929741356679,0.009233691265240818,0.010179529748829848,0.011222590195139116,0.012383435842525268,0.013686048164686375,0.015157826870662021,0.016829589904833166,0.018735573446922133,0.020913431911992773,0.023404237950450345,0.026252482448041417,0.029506074525854048,0.03321634154031788,0.03743802908320371,0.04222930098162386,0.047614454086722685,0.0536243019946999,0.060344038169481196,0.06783984290591313,0.07615835060261128,0.08532664976196368,0.09535228299012866,0.10622324699703549,0.11790799259638414,0.13035542470564515,0.14349490234606035,0.157236238642642,0.17146970082417348,0.1860660102232088,0.2008763422760726,0.21573232652286073,0.23044604660743961,0.24481008867581563,0.2585979696219577,0.27160468178378394,0.2836747553097054,0.2945780578880545,0.304111589784038,0.31210425904101935,0.31841688148051783,0.3229421807022104,0.3256047880839289,0.3263612427816627,0.3251999917295579,0.32214138963991645,0.31723769900319704,0.31057309008801465,0.3022636409411413,0.2924573373875049,0.2813340730301899,0.2691056492504378,0.2560157752076458,0.24233680592312395,0.22821999936467066,0.21384064484618237,0.19941791390612498,0.18514725361162865,0.17120038655848854,0.1577253108711648,0.14484630020278225,0.13266390373513082,0.12125494617866503,0.11067252777250358,0.10094602428443257,0.09208108701090022,0.08405964277702058,0.07683989393657262,0.07035631837200011,0.06451967985984337,0.05921721868138438,0.054362639349110856,0.04974523785849125,0.04471624441899009,0.03866685470819206,0.031061335634559636,0.021437025337049834,0.009404333185113942,-0.00535326022130226,-0.02307920305175844,-0.04396245068343059,-0.06725762839676311,-0.09046318314307326,-0.11083431679443262,-0.12552588961316194,-0.13159242025183118,-0.12598808575325865,-0.10556672155051358,-0.06708182146691387,-0.007284023491744463,0.07544632174785858,0.18143064192599503,0.30903159416884496,0.4543135350153991,0.6110425204174577,0.7706863057396319,0.9224143457593436,1.053097794666824,1.1477283986790914,1.1964520076479042,1.1956599404437824,1.1454117815986506,1.0495765569943059,0.9158327338624206,0.755668220784541,0.5839996186255619,0.4127199085003583,0.25084162067715965,0.10570303082858677,-0.017498680403987967,-0.11570742741051035,-0.1880082196121981,-0.23538766637878714,-0.2583951090167799,-0.26125183588028367,-0.2488007076563204,-0.22539347860939707,-0.19489079658150585,-0.1606622029921237,-0.12558613283821246,-0.09204991469421893,-0.061949770712075025,-0.036690816621197345,-0.017044061113970967,-0.0022063402245658032,0.008872854889304525,0.01708354677033467,0.023204220082537714,0.027901821611246005,0.03173176026311048,0.035137907066101565,0.038452595169507636,0.04189661984393665,0.04557923848131563,0.049498170594890215,0.05360238212158658,0.05801520623260294,0.06277754339111694,0.06791543725432142,0.07345212944446733,0.0794080595488638,0.08580086661240957,0.09264576898092056,0.09995606811101643,0.10774238765890168,0.11601243782180216,0.12477091771821085,0.1340197014099231,0.14375786092379267,0.15398166625173176,0.1646845853507105,0.17586213825797317,0.18756698859384344,0.19976889947869253,0.21240607022328792,0.22541643259043107,0.23873765079495865,0.25230712150374274,0.26606197383568964,0.2799390693617417,0.2938750021048758,0.3078060985401042,0.32166841759447407,0.33539775064706806,0.34892962152900314,0.3621992865234323,0.37514173436554316,0.38769168624255823,0.3997835957937356,0.41135164911036837,0.4223297647357844,0.4326515936653469,0.44225051934645426,0.45105965767853984,0.459011857013072,0.46603969815355506,0.4720754943555266,0.4770512913264055,0.4808987098445442,0.4835418343664387,0.4848383017187849,0.48479663673263323,0.48347396458413705,0.48092765214903177,0.4772153080026335,0.47239478241984073,0.46652416737513275,0.45966179654257083,0.45186624529579755,0.4431963307080367,0.4337111115520943,0.42346988830035764,0.41253220312479516,0.4009578398969571,0.3888068241879752,0.3761394232685628,0.3630161461090145,0.3494977433792055,0.335645207448596,0.32151977238622403,0.3071829139607106,0.292696349640258,0.27812203859265,0.26352218168525193,0.2489592214850109,0.23449584225845538,0.22019496997169524,0.2061197722904219,0.19233365857990814,0.1789002799050088,0.16588352903016,0.15334754041937892,0.1413566902362648,0.12997518423119195,0.11920156792623432,0.10899971213002606,0.09935815530659986,0.09026494551951202,0.08170786532447424,0.0736744051550773,0.0661515593975066,0.05912581904664284,0.05258317170606474,0.04650910158804871,0.04088858951356841,0.0357061129122947,0.030945645822596037,0.026590658891538485,0.022624119374885183,0.019028491137096756,0.015785734651331436,0.012877306999444603,0.01028416187198906,0.007986749568215143,0.0059650169960707355,0.004198407672200604,0.002665861721947573,0.0013458158793512535,0.00021620348714933898,-0.0007455455032237355,-0.0015625045316357824,-0.002258250429257206,-0.00285646614971536,-0.0033580478423534312,-0.003762564679571254,-0.004078606694131684,-0.004314268871310985,-0.004477151148899095,-0.004574358417199453,-0.004612500519029497,-0.004597731932609252,-0.004536187710437579,-0.00443382164389198,-0.004296098027159308,-0.0041279861069403396,-0.0039339600824493705,-0.0037179991054143626,-0.0034835872800768226,-0.003233713663191819,-0.0029708722640283194,-0.0026970620443686946,-0.0024137869185090356,-0.0021220557532591004,-0.0018223823679421117,-0.0015147855343950918,-0.0011987889769685877,-0.0008734213725270605,-0.0005372163504480214,-0.00018821249262326,0.0001760466665422459,0.0005618194090886396,0.0009749105406146553,0.001417565059308911,0.001895193991401773,0.0024164099918873028,0.002993027344523654,0.0036400619618325285,0.004375731385099856,0.005221454784374918,0.006201852958471249,0.0073447483349662005,0.008681164970200854,0.01024532854928024,0.012074666386073157,0.01420980742321237,0.016694582232094482,0.01957605249696501,0.022905219133873812,0.026737056924617673,0.031129778695202823,0.036144745636793416,0.04184616079508817,0.04828761427133486,0.05549322217932672,0.06349571845131005,0.07231195137078873,0.0819416596099905,0.09236747222986882,0.10355490868009565,0.11545237879907212,0.12799118281392172,0.14108551134049135,0.15463244538335214,0.1685119563357992,0.18258690597985164,0.19670304648625178,0.21068902041446638,0.22435636071268628,0.23749949071782578,0.2498957241555232,0.26130526514014074,0.27147145424403707,0.280196780066401,0.28737061243236034,0.2928906873126072,0.2966796971462839,0.2986852908409826,0.2988800737727457,0.2972616077860662,0.2938524111938865,0.2886999587775996,0.28187668178704856,0.27347996065349717,0.26363159716247664,0.2524774583422156,0.24018828331741124,0.22695976768121143,0.21301256349521328,0.1985922792894651,0.18396948006246433,0.1694188555425371,0.15498553284311048,0.14081661742622195,0.12709259213226298,0.11396441705894177,0.10155352956128368,0.08995184425163048,0.07922175299964104,0.06939612493229098,0.06047830643387263,0.05244212114599526,0.045231869967584805,0.03876233105488294,0.032918759821451704,0.027556888938166095,0.0225029283332195,0.017553565192121968,0.012475963957700297,0.007100225836369791,0.00097029265041316,-0.007095173327600464,-0.01793054397396218,-0.03195568778123755,-0.049175969858266964,-0.0691822519301651,-0.09115089233832117,-0.11384374604039929,-0.13562596225020532,-0.15458389744718293,-0.16678122344916155,-0.16816041474912688,-0.1552754463927352,-0.1252918811800383,-0.07598675422995337,-0.005748356147091857,0.08642349399351494,0.20091738924642535,0.3392219217083416,0.49758631529723335,0.6616601109463387,0.8184063781062357,0.9565257078132917,1.0664562126896637,1.1403735269432982,1.1721908063679303,1.1575587283430862,1.0938654918340807,0.9821636546010039,0.8356611141640674,0.6694446896322889,0.4964246468640131,0.32738140369285423,0.1709655299276934,0.03369774735268061,-0.0800310702727653,-0.16795989721395846,-0.22995755576095295,-0.26780598983622333,-0.2818852612442912,-0.27658568418750984,-0.25733105338413975,-0.22887511569281757,-0.1953015701125559,-0.16002406778274353,-0.12578621198314566,-0.09466155086456965,-0.06805355141018608,-0.046695623209367584,-0.03065112799109097,-0.01931337962470828,-0.011405644119948957,-0.005157645178325539,-0.00016709643835777135,0.0037860631335903815,0.007035773121096019,0.009874244343945602,0.012551958858134385,0.015277669955866888,0.018218402165556345,0.021499451251825258,0.02520438421550533,0.02937503929363707,0.03401152595947002,0.039072224922463095,0.044481773759784106,0.05029305529022294,0.056563369380147735,0.06331400967301684,0.07056178548591159,0.0783190218095368,0.08659355930822035,0.09538875431991355,0.1047034788561905,0.11453212060224888,0.12486458291690954,0.13568628483261655,0.14697816105543723,0.158716661965062,0.1708737536148045,0.183416917731602,0.19630915171601435,0.20951134785730113,0.22303047378101404,0.2368055653124649,0.25074411168334254,0.2647560187023047,0.27875346132474266,0.2926508352856372,0.30636494298926353,0.3198150071678844,0.332922670881751,0.34561199751910243,0.35780947079616543,0.36944399475715517,0.38044689377427476,0.3907519125477152,0.40029521610565527,0.4090153898042623,0.4168534393276912,0.4237527906880852,0.429659290225575,0.4345212046082798,0.4382892208323066,0.4409164462217505,0.44235840842869467,0.4425451563588796,0.4413129277254846,0.4387111773998936,0.4348219950082902,0.42972612203967525,0.423502951845869,0.4162305296415081,0.4079855525040488,0.3988433693737643,0.38887798105374644,0.3781620402099049,0.36676685137096754,0.35476240015440647,0.3422177561674654,0.3292009709030873,0.3157787560558767,0.30201647518325647,0.2879781437054671,0.27372642890556764,0.25932264992943466,0.24482677778576087,0.23029743534606376,0.21579189734467225,0.20136609037873487,0.1870745929082189,0.17297063525590944,0.15910609960741,0.14553152001114142,0.13229608237834298,0.11944762448307228,0.10703263596220444,0.095096258315433,0.08368228490526934,0.07283316095704306,0.06258998355890188,0.05298706628001586,0.04401183003317517,0.03563690089705486,0.027836412308499276,0.020585047861269155,0.01385804130604077,0.007631176550406275,0.0018807876588736307,-0.0034162411471333016,-0.008282475489274951,-0.012739930832295703,-0.01681007248402433,-0.020513815595373706,-0.023871536729247272,-0.02690344752569996,-0.029629675485391548,-0.03206982586143982,-0.034242953750046684,-0.03616755269846027,-0.03786143840398315,-0.03934179622040907,-0.0406252601034581,-0.04172791385193448,-0.042665291107726794,-0.04345237535580761,-0.044103599924233836,-0.04463284798414647,-0.04505345254977064,-0.04537819647841569,-0.04561931247047508,-0.04578848306942649,-0.045896840661831854,-0.04595496747733706,-0.04597289558867232,-0.045960106911651935,-0.045925533205174465,-0.04587755607122261,-0.045823773582475226,-0.0457398314944294,-0.0456162728198428,-0.0454671485033799,-0.04530483395951791,-0.0451400290725467,-0.044981758196568786,-0.04483737015549956,-0.04471253824306684,-0.04461126022281139,-0.04453585832808661,-0.04448697926205854,-0.04446359123957744,-0.044462633431225196,-0.04447868526473499,-0.04450457235494709,-0.044531444786514156,-0.04454877711390198,-0.044544368361388656,-0.04450434202306517,-0.044413146062835314,-0.04425355291441528,-0.04400665948133416,-0.04365188713693383,-0.04316698172436855,-0.04252801355660566,-0.04170937741642498,-0.04068379255641903,-0.03942230269899308,-0.03789427603636516,-0.03606740523056584,-0.03395553937424539,-0.03152026368323049,-0.028644487071600062,-0.025225783131876095,-0.021176503691921658,-0.016423778814940906,-0.010909516799478571,-0.004590404179423239,0.0025620942759977663,0.010561735562215074,0.019407498439318015,0.0290835834320549,0.039559412829832274,0.0507896306867159,0.06271410282143014,0.07525791681735804,0.08833138202254125,0.10183002946652928,0.11563437082128648,0.12960936926340824,0.14362846429551474,0.1575437654937863,0.17107236502412848,0.18394818074632996,0.1959315553651544,0.20680929479564825,0.21639468324205532,0.22452748319870067,0.23107393544998908,0.23592675907040656,0.23900515142451997,0.2402547881669766,0.2396478232425044,0.23718288888591235,0.2328850956220899,0.226806032266007,0.2190207229764831,0.2095908417364457,0.1987266926752445,0.18667679817051086,0.17367650347971691,0.15994797674017452,0.14570020896903607,0.131129014063294,0.11641702879978111,0.10173371283517059,0.08723534870597562,0.07306504182854982,0.05935272049908698,0.04621513589362116,0.033755862068026686,0.02206529595801626,0.01122065737914853,0.0012819866861947422,-0.007742320275490649,-0.015893387872315427,-0.023250308815186044,-0.029930328168726268,-0.03608884356120888,-0.0419194051845556,-0.047653715794337435,-0.05356163070977417,-0.059951157813734814,-0.06716845755273747,-0.07559784293694918,-0.08566177954018606,-0.09782088549991334,-0.11257393151724511,-0.13045784085694487,-0.1527051828019917,-0.18230607377847421,-0.21372282279767518,-0.2408054652379361,-0.25836350922442225,-0.26216593562912255,-0.24894119807085008,-0.21637722291524167,-0.16312140927475788,-0.08878062900868358,0.006078773276872665,0.11993098022897898,0.25029070174787904,0.3937131749869923,0.5457941643529151,0.7011699615054197,0.8506037957677615,0.9765811577927445,1.0653138465628673,1.1077238885601484,1.0994092985750543,1.0406439737390423,0.936376791281423,0.7962320588085606,0.6335933518381098,0.4612925740908652,0.29119764479942134,0.13289458116068736,-0.006403443496454573,-0.1218561030657114,-0.2109959191114637,-0.27372826086876456,-0.3114969712924531,-0.3252693640836675,-0.3202969523350748,-0.30174087918216563,-0.27413774780161726,-0.24139962141129404,-0.2068140232702471,-0.17304393667871396,-0.14212780497811955,-0.11547953155107496,-0.09388847982137839,-0.07748146130256026,-0.06521139074460736,-0.05609604730286257,-0.04940348234646111,-0.04448321451981838,-0.04076622974263,-0.03776498120987167,-0.03507338939179926,-0.03236684203394885,-0.029402194157136376,-0.026017768057458472,-0.022133353306291452,-0.017750206750291934,-0.012951052511396784,-0.007900033770414943,-0.002609119452012895,0.0030934543984753706,0.009234234071433534,0.01583538960978959,0.022914784244102496,0.03048597439256267,0.038558209660991806,0.04713643284284296,0.056221279919200534,0.06580908005878036,0.07589185561792956,0.08645732214062654,0.09748888835848132,0.10896565619073681,0.12086242074426184,0.13314967031356198,0.1457941393643771,0.15881673083422004,0.1721786959210183,0.1857869255870491,0.19955058883572313,0.21338113271158438,0.22719228230031036,0.24090004072871235,0.25442268916473476,0.26768078681745516,0.28059717093708514,0.29309695681496956,0.30510753778358674,0.31655858521654817,0.32738204852859903,0.3375121551756183,0.34688541065461753,0.35544059850374277,0.3631187803022725,0.3698632874628714,0.37561935015686687,0.38033394592544745,0.3839562907906984,0.38643787881583697,0.38773248210521405,0.3877959544670879,0.3864646468781626,0.38368809125995434,0.37956216553587596,0.3741806298436558,0.3676351265353354,0.36001518017727047,0.35140819755013114,0.34189946764890133,0.3315721616828791,0.3205073330756766,0.30878391746522016,0.29647873270375,0.2836664788578206,0.27041973820830045,0.2568089752503719,0.2429025366935295,0.2287666514615884,0.21446543069267113,0.2000608677392166,0.1856128381679777,0.17117909976002144,0.15681529251072912,0.14257493862979545,0.12850944254122995,0.11466809088335618,0.10109805250881108,0.0878443784845465,0.07495000209182784,0.062455738826234765,0.050400286464706755,0.0388202399676074,0.027750110286510622,0.017222295216834185,0.007267074768309368,-0.002087388835017626,-0.010815533696663222,-0.018916393340351053,-0.026418943228608497,-0.033353137763799556,-0.03974815461793669,-0.045632394732681575,-0.05103348231934459,-0.05597826485888483,-0.06049281310191027,-0.06460242106867788,-0.06833160604909311,-0.0717041086027105,-0.0747428925587334,-0.07747014501601387,-0.07990727634305277,-0.08207492017799994,-0.08399293342865395,-0.08568039627246214,-0.08715561215652086,-0.08843610779757495,-0.08953863318201837,-0.09047916156589386,-0.0912728894748929,-0.09193423670435576,-0.09247684631927171,-0.09291358465427865,-0.09325654131366334,-0.09351702917136141,-0.09370558437095743,-0.09383196632568451,-0.09390515771784601,-0.09393328884978372,-0.09392342839479437,-0.09388180124012266,-0.09381385554266206,-0.09372426272895504,-0.09361691749519252,-0.09349492706763757,-0.09336054459755168,-0.09321521261752952,-0.09305936227310516,-0.09286438784443166,-0.09262336390689013,-0.09235262119405725,-0.09206574164513585,-0.0917735584049561,-0.09148415582397451,-0.09120286945827484,-0.09093228606956712,-0.09067224362518861,-0.09041983129810321,-0.09016938946690148,-0.08991250971580102,-0.08963803483464607,-0.08933205881890773,-0.08897792686968363,-0.08855623539369871,-0.08804483200330417,-0.08741881551647845,-0.08665053595682636,-0.08570959455357993,-0.08456284374159763,-0.08317438716136485,-0.0815055796589939,-0.07951502728622353,-0.07715858730041986,-0.07438936816457509,-0.0711578145981425,-0.06741216896613839,-0.0630981409416978,-0.05818400823224442,-0.052635724366818716,-0.04636823006692704,-0.03931507220176389,-0.031429742002925275,-0.022685675064408363,-0.01307625134261134,-0.0026147951563337407,0.008665424813223872,0.020711195522459605,0.03344935956537048,0.0467868151735523,0.06061051621619991,0.07478747220010659,0.08916474826966476,0.10356946520686547,0.11780879943129882,0.13166998300015356,0.14492030360821712,0.1573073986694507,0.16865449053475548,0.17878765960304124,0.18749793485687818,0.19461160900842633,0.1999902384994359,0.20353064350124708,0.2051649079147898,0.20486037937058418,0.20261966922874042,0.19848065257895833,0.19251646824052793,0.18483551876232948,0.17558147042283256,0.1649333147359464,0.153076938491722,0.14017129074749296,0.126472665517308,0.11222662068333975,0.09765959369536507,0.08297890155438198,0.06837271258315697,0.054009988476384954,0.04004055411246948,0.02659511393741956,0.013785251964846692,0.001703431775973636,-0.009577003480377714,-0.02000183108777879,-0.029542831716742816,-0.03828994484547706,-0.04620930684353011,-0.05327435531855358,-0.05953527220889178,-0.06511898378358151,-0.07022916064235206,-0.07514621771562542,-0.08022731426451606,-0.08590635388083076,-0.09269398448706913,-0.1011775983364232,-0.11202133201277764,-0.1259819883846461,-0.143552893979805,-0.16406968129420724,-0.18633124874661544,-0.20870542625562077,-0.2291289752396422,-0.24510758861692716,-0.25371589080555085,-0.25159746597194627,-0.23496550308587777,-0.199875120306851,-0.14452818430999242,-0.06624858921056787,0.03601112221656981,0.16090060355812116,0.30467170476234134,0.4611784721390393,0.6218771483595776,0.7758261724568736,0.9096861798253985,1.0075751394572485,1.0559306484214401,1.0542748784789866,1.0056033938046565,0.9147549007418914,0.7884112478028046,0.6350974256681821,0.46518156718745385,0.29087494737880637,0.12623198342901598,-0.01567626809816345,-0.13344461536982166,-0.22610116772076325,-0.293367276416578,-0.335978094968755,-0.3556825791346827,-0.355243486917649,-0.3384373785668412,-0.3100546165773462,-0.27578765834751734,-0.23995995227714834,-0.2050335319291526,-0.1729107376925502,-0.1449441043832321,-0.12193635406191349,-0.10413991537283414,-0.0912566205467488,-0.08243842399037347,-0.07628747453729505,-0.0712001705292633,-0.06695170770682782,-0.0632919562343274,-0.0599547584997027,-0.05671428064228334,-0.05338503827248605,-0.04982189852763718,-0.04592008007197238,-0.041615153096636666,-0.03688303931968448,-0.031740011986079605,-0.026233688431850113,-0.020324215568899955,-0.013967904448001528,-0.007139909980340195,0.0001798931055657716,0.008006910263865031,0.016351827131372808,0.02522060952757118,0.03461450345460933,0.04453003509730305,0.05495901082313491,0.06588851718225466,0.07730092090748032,0.08917386891429137,0.10148028830083988,0.11418838634794247,0.12726165051908306,0.14065884846041188,0.15433681759048262,0.16831033848912813,0.18251461786899462,0.19684623798532108,0.21120475884157736,0.22549321763325395,0.2396182261020515,0.2534899705358813,0.2670222117688655,0.2801322851813367,0.2927411006998382,0.30477314279712353,0.3161564704921573,0.3268227173501141,0.3367070914823798,0.34574837554655036,0.3538889267464325,0.3610746768320436,0.36725513209961136,0.3723833733915743,0.37641605609658174,0.37931341014949294,0.38103924003137835,0.3815609247695187,0.38084941793740557,0.37879584994216714,0.37530690290876667,0.37048413635810507,0.36442943299866665,0.3572419882776201,0.3490183103808178,0.33985222023279665,0.32983485149677566,0.3190546505746646,0.3075973766070457,0.2955461014731994,0.28298120979107466,0.26998039891732123,0.2566186789472556,0.2429684084163249,0.2290994173101911,0.21507889244071132,0.20097133336013906,0.18683855235942998,0.17273967446820546,0.15873113745478937,0.14486669096577562,0.1311973870086292,0.11777158345126278,0.10463495077715257,0.09183047220844134,0.07939844370597314,0.06737647396925937,0.05579948443651135,0.04469970928460956,0.03410669542913328,0.024047302524331217,0.01454570296314971,0.005623381877207318,-0.0027008628631826296,-0.010413985892443588,-0.01753308020735469,-0.024088142537786482,-0.030108417748446636,-0.03562236487736511,-0.04065765713590985,-0.04524118190877279,-0.0493990407539823,-0.05315654940289179,-0.056538237760190235,-0.05956784990389288,-0.062268344085349175,-0.0646618927292358,-0.0667698824335631,-0.06861291396966916,-0.0702107759264726,-0.07158226921477624,-0.07274531560744858,-0.07371705054611385,-0.07451382364572778,-0.07515119869457618,-0.07564395365427579,-0.07600608065977318,-0.07625078601934634,-0.07639049021460327,-0.07643682790048267,-0.07640064790525378,-0.07629201323051626,-0.07612020105120068,-0.07589370271556771,-0.07562022374520908,-0.07530668383504632,-0.07495921685333247,-0.07458317084165018,-0.07418310801491339,-0.07376280476136611,-0.07332525164258318,-0.07286017136574197,-0.07233860622189339,-0.07177470598328968,-0.07118331029264391,-0.0705768980699057,-0.06996558751226331,-0.0693571360941419,-0.06875694056720467,-0.06816803696035197,-0.0675911005797222,-0.06702444600869129,-0.06646402710787228,-0.06590343701511671,-0.06533390814551265,-0.06474432337919982,-0.06412136391133322,-0.06344946849986817,-0.06271071799279061,-0.06188483251532479,-0.06094917146993166,-0.05987873353631094,-0.05864615667139855,-0.05722171347683612,-0.05557329359795207,-0.053666419295180595,-0.051464252104947025,-0.04892759284091711,-0.04601488159399099,-0.04268219773230983,-0.038883259901248794,-0.03456942602342476,-0.02968969329868728,-0.024190698204129286,-0.01801671649407468,-0.011109663200092514,-0.003409092630981044,0.005147801627214602,0.014631176181718044,0.025039796084108806,0.03630645780480119,0.04835259320305071,0.06108858853924709,0.07441378447488418,0.08821647607259168,0.10237391279610146,0.11675229851028306,0.13120679148110728,0.14558150437568254,0.1597095042622189,0.17341281261006375,0.1865023997284053,0.19877801500596895,0.2100281556559524,0.22003026142763715,0.22855072647141342,0.23534489933879302,0.2401932313472233,0.2430594399701118,0.2439740027008905,0.2429830954149317,0.24014891023887275,0.23554965555061813,0.2292795559793318,0.22144885240545006,0.21218380196066444,0.20162667802794212,0.18993577024150257,0.17728538448684397,0.16386584290071346,0.14988348387114,0.13556066203739955,0.12113574829005078,0.10686312977089865,0.09301038562148167,0.07959204992222978,0.0666739946499598,0.05444596059425071,0.04305316167375724,0.032596284936178735,0.023131490558287858,0.014670411845904176,0.007180155233918338,0.0005833002862702472,-0.005242100304031378,-0.010462520714926614,-0.015288961995288567,-0.01997694982072926,-0.02482629332341276,-0.03018087018347351,-0.03642903425231691,-0.043975454302542065,-0.053357533908859035,-0.06555684319142904,-0.08107871691147082,-0.09983346842921251,-0.12113638352007491,-0.14370771354909345,-0.1656726868756539,-0.18456151049645342,-0.19730937004551802,-0.20025642979416605,-0.1895252108082785,-0.16364615788441128,-0.11782638351361172,-0.04833839999031064,0.0461882020982331,0.16476675387175213,0.30405350815721155,0.45834763948850954,0.6195912441068265,0.7773693399602409,0.918909866704128,1.0295107481688692,1.0978370243498214,1.1179458040365424,1.0878857394390966,1.0096793488536269,0.8893230166622813,0.7367869933334051,0.5660153954212468,0.39340506414466125,0.22865586214692538,0.07909706665779132,-0.049626555600954386,-0.15379290195076759,-0.23160244444744835,-0.28317820848454195,-0.3105657727935383,-0.3170115955771965,-0.30550480263155394,-0.2814491521623175,-0.2497218138991306,-0.21441707169991822,-0.1788463235508111,-0.1455380815662316,-0.11623797198880609,-0.09190873518944824,-0.07273022566728451,-0.05794581695030587,-0.046123529925143986,-0.036723291530501107,-0.02931585630191187,-0.023503381563914474,-0.01891942743004003,-0.01522895680280956,-0.012128335373744421,-0.009345331623355605,-0.006639116821152568,-0.0038002650256360095,-0.0006507530843043764,0.002956039366353326,0.0071353299008487785,0.011970933304704586,0.017515261574442994,0.02378932391759845,0.03078272675270287,0.03845367370930287,0.04672896562794072,0.05550400056017449,0.06464272700990294,0.07404144231572218,0.08392251096219186,0.09432341376089222,0.10523449631283185,0.11664117918745323,0.1285239579226044,0.14085840302456898,0.1536151577113103,0.1667598894750989,0.18025329074601096,0.19405112679854858,0.20810423787561688,0.2223585391885585,0.23675502091711856,0.25122974820948,0.265713861182228,0.2801335749203857,0.29441017947737835,0.30846003987506937,0.32219459610372425,0.33552036312204614,0.3483565637119099,0.3606734457508003,0.3723734472695108,0.3833586621573368,0.39353994198136,0.40283689598647476,0.41117789109536573,0.41850005190851836,0.42474926070422475,0.4298801574385687,0.4338561397454403,0.43664936293652434,0.4382407400013094,0.4386199416070812,0.4377854053803078,0.4357444119645492,0.4325130456312392,0.42811614877361265,0.4225873214627004,0.4159689214473382,0.4083120641541554,0.39967662268758886,0.39013122782986565,0.3797532680410245,0.36861711696292204,0.3567359597655207,0.3442016887990122,0.3311197499052827,0.31759079977250393,0.30371070593516536,0.28957054677404087,0.27525661151622366,0.2608504002350902,0.24642862385033643,0.2320632041279418,0.21782127368020548,0.2037651759657095,0.18995246528935575,0.17643590680232957,0.16326347650213544,0.15047836123256206,0.13811895868371615,0.12621887739198992,0.11480693674009257,0.10390716695701961,0.09353880911808268,0.08371631514488087,0.07444934780532765,0.06574833474250161,0.0576584432158959,0.050165987996536925,0.043242737642409504,0.03686122903635249,0.03099467284684504,0.025616950343753005,0.02070261339831408,0.01622688448315175,0.012165656672262054,0.008495493641025833,0.005193638698836167,0.0022380751740645423,-0.00039251081783058146,-0.0027187623837339726,-0.004760652029154241,-0.006537481658218469,-0.008067882573677247,-0.009369815476899803,-0.010460570467878428,-0.01135676704522472,-0.012074354106172618,-0.01262860994657603,-0.01303414226091082,-0.013304888142272868,-0.01345411408237997,-0.013494415971570261,-0.01343771909880324,-0.013295278151659354,-0.01307767721633991,-0.012794829777667457,-0.012455978719085332,-0.012069696322658053,-0.011643884269070882,-0.011185773637630552,-0.010701924906264076,-0.01019822795152044,-0.009679902048568587,-0.009139351479613495,-0.0085519975298864,-0.007929973662560732,-0.007285767095965472,-0.006629972282288327,-0.005971290907574327,-0.005316531891727692,-0.0046706113885097034,-0.004036552785540542,-0.0034154867042984743,-0.0028066510001192573,-0.0022073907621976436,-0.0016131583135857775,-0.0010175132111946595,-0.0004121222457923843,0.00021324055799338496,0.0008706939416783424,0.0015742494129188048,0.002339811245513941,0.003185176479403801,0.004130034920671391,0.005195969141540343,0.006406454480377676,0.007786859041690491,0.009364443696129678,0.011168362080485925,0.013229660597694032,0.01558127841682811,0.018253645144332614,0.021217922127216345,0.024558369109718786,0.028389869009202404,0.03281157527795371,0.037906911903173704,0.04374357340698834,0.05037352484643696,0.05783300203447497,0.06614255476046946,0.07530709864987811,0.08531583251016174,0.09614222568371256,0.10774401804782918,0.12006322001474423,0.13302611253159416,0.14654324708045172,0.1605094456772576,0.17480379728720902,0.1892896497967983,0.2038176750542025,0.2183057194634473,0.23250832476293795,0.24612540766087557,0.2588876199778502,0.2705563486468102,0.2809237157130776,0.2898125783343549,0.2970765287807047,0.3025998944345708,0.30629773779076136,0.3081158564564612,0.3080307831512238,0.3060497857069749,0.30221086706801353,0.29658276529100647,0.28926495354499804,0.2803876401113963,0.27011176838399065,0.25860172136714626,0.2459892774740045,0.23254273194987576,0.21852390919609593,0.20417278728480892,0.1897074979586941,0.175324314414602,0.16119761887560355,0.14747993704014634,0.13430194827752087,0.12177248562782485,0.10997853580199718,0.09898523918178533,0.08883588981977696,0.07955193543937043,0.07113297743480092,0.06355677087111736,0.05677922448420328,0.05073440068075799,0.04538055487712679,0.04086465609769136,0.03661640107849368,0.031982295630831284,0.026390130740619005,0.019348982568376562,0.010449212449242786,-0.0006375331070421787,-0.014158322416113846,-0.030278938619012322,-0.049083879682147565,-0.07058043776840432,-0.0940890952791935,-0.11646683077409978,-0.13418750919394778,-0.14390502044457404,-0.1424532793968667,-0.1268462258867453,-0.09427782471515307,-0.04212206564810085,0.032067036583420486,0.13086329201704894,0.2549850996754275,0.3980775572939053,0.5523588240104795,0.7092828888842369,0.8595395926030155,0.9930546275281478,1.0989895376948324,1.1657417188118087,1.1809662499324776,1.1385351967948432,1.0483869444930642,0.9223158518131449,0.7715285048526795,0.6066437753675721,0.43769282583624347,0.27411910946003765,0.12477837016280592,-0.002079086369488349,-0.10221871310860557,-0.1764039119711777,-0.22579637839600603,-0.2522467681715441,-0.2582946974360278,-0.24716874267740296,-0.22278644073334658,-0.18975428879128842,-0.1533233475581856,-0.117515067796515,-0.08420582458359353,-0.05472973701561051,-0.02992989508278999,-0.010158359669465631,0.004723837445982994,0.01534669359107877,0.022831235199286724,0.02866846691423401,0.033442979663716996,0.03745286522559205,0.04101688553011898,0.04440284156859532,0.04782747564362063,0.05145646985113158,0.05540444608039254,0.05973496601400596,0.06446053112790108,0.06954258269134575,0.07497308820016434,0.08081712687213632,0.0870994303480818,0.09384101074579597,0.10105917463358709,0.10876752303029322,0.11697595140526391,0.1256906496783793,0.13491410222003022,0.14464508785113994,0.1548786798431401,0.16560624591799622,0.17681544824818152,0.18849024345670418,0.20061088261707855,0.21318826355128043,0.22623674285193718,0.23968047157613692,0.25344211302592884,0.2674450936137228,0.28161360286225434,0.295872593404619,0.31014778098423856,0.3243656444548951,0.33845342578069576,0.3523391300361094,0.3659515254059294,0.3792201346506731,0.3920750496412131,0.4044469326262301,0.4162672006835827,0.42746803400148686,0.4379823758784911,0.4477439327234876,0.4566871740557207,0.46474733250476646,0.4718604038105541,0.4779631549490415,0.48299322166426184,0.48688907669992026,0.4895899574262354,0.4910053413688899,0.49098210934200215,0.4895719548820899,0.4868499677688656,0.482890428397464,0.4777668077784371,0.47155176753776296,0.4643171599168328,0.45613402777246737,0.4470726045768987,0.4372023144177891,0.42659177199821063,0.4153087826366687,0.40342034226707557,0.3909926374387784,0.3780910453165299,0.36478013368051937,0.3511236609263403,0.33718457606502406,0.3230250187230044,0.3087063191421541,0.2942889981797487,0.2798327705726824,0.26539674731504165,0.25103955452216253,0.23681903752362513,0.2227922322644479,0.20901536530505266,0.19554385382129874,0.18243230560444942,0.16973451906120518,0.1575034832136708,0.14579137769938788,0.13464957277130224,0.12412862929779689,0.11425526804659743,0.10498582552598316,0.09629931998715573,0.08817687931498971,0.08059961568009483,0.07354862553879433,0.06700498963314516,0.06094977299091996,0.0553640249256229,0.050228779036475706,0.04552505320843029,0.04123384961215695,0.03733615470405544,0.03381293922624469,0.03064515820657234,0.02781375095860609,0.0252996410816414,0.023083736460694334,0.02114692926650839,0.01947009595554836,0.01803409727000541,0.01681977823779319,0.01580796817255066,0.014979480288173794,0.014314942179584334,0.013794529882481605,0.013398334808257275,0.013106432654027023,0.012898883461218896,0.012770207434067087,0.012722300257836203,0.01274683037902966,0.012835992043130308,0.012982505294600788,0.01317959224325948,0.013420879709059794,0.013700481792861081,0.014013038378377328,0.01435371514830161,0.014718203584306838,0.015102720967044833,0.015504010376147577,0.015919340690226,0.0163465065868709,0.016783828542652146,0.017230152833119475,0.017684851532801846,0.018147822515207794,0.018619489452825343,0.019100801817121864,0.019593234878544377,0.020098789706519234,0.020619993169452608,0.02115989793472945,0.02172208246871501,0.022310651036753257,0.022926876221473987,0.023570225351904533,0.02425900134535079,0.025014930438476954,0.02586204266943648,0.026826974608625948,0.027938681491705367,0.02922833098851214,0.03072930320149946,0.03247719066573334,0.034509798348896024,0.03686714365128204,0.039591456405802826,0.04272717887798098,0.04632096576595759,0.050421684200483416,0.05508041374492893,0.06035044639527301,0.06628728658011573,0.0729486511606639,0.08039446943074713,0.08868793219220478,0.09795339390609473,0.10818066023473431,0.11927474941669752,0.1311343171630538,0.14365165665739504,0.15671269855580644,0.1701970109868977,0.18397779955177007,0.19792190732405063,0.21188981484985697,0.22573564014783337,0.23930713870911413,0.2524457034973598,0.2649863649487265,0.2767577909718788,0.2875822869480015,0.2972757957307731,0.30564789764639383,0.31250177106225235,0.3176339394539755,0.3208344323615332,0.3218849594013563,0.32072478772011903,0.31752216546383666,0.31245607304567685,0.30570355066703164,0.2974396983175314,0.28783767577502684,0.27706870278535495,0.2653020960258562,0.25270531436590643,0.23944388754072912,0.22568140507379453,0.2115795162767861,0.197297930249635,0.18299441588048485,0.16882480184572765,0.15494297660996756,0.14150088842605657,0.1286485453350601,0.11653401516629015,0.10530342553727286,0.0950241513482259,0.08550778086732262,0.07683299441040348,0.06905120730534291,0.06214555683252429,0.05603090222482118,0.050553824667614086,0.045492627298775005,0.04055733520868199,0.03538969544020511,0.02956317698872036,0.0225829708020953,0.013886011889444994,0.0028412595341745428,-0.01125038606144878,-0.029042057932667502,-0.04998932564552781,-0.07270401810008385,-0.09542267198408191,-0.11600717867276626,-0.13194478422893363,-0.14034808940288457,-0.13795504963246003,-0.12112897504302438,-0.0859911785251955,-0.030697738293319128,0.04733861039438276,0.1493434399507482,0.2740755607763035,0.4178270212590044,0.5744231077745495,0.7352223446860218,0.8891164943442763,1.0225305570875447,1.1190150778007582,1.1692032779684922,1.171806835979572,1.1279365624265945,1.0410689862031013,0.9170463545036828,0.7640766328237656,0.5927335049599182,0.41595637300947613,0.24905035737095832,0.10524129704987052,-0.015023954448446541,-0.11052249503785419,-0.1808331649353417,-0.22653135958021345,-0.2491894900677167,-0.2513770535071206,-0.236660116385239,-0.20960128447084722,-0.17575385705532812,-0.1400298865744846,-0.10498135663677888,-0.07259298458898884,-0.04428175053758662,-0.020896897348658905,-0.0027199323056591087,0.010535333565496576,0.019722783844009124,0.0262640373610789,0.03153817177703933,0.03577035733086387,0.03932033391108682,0.0425010891155199,0.04557202225558028,0.04873894435628237,0.05215407815624571,0.05591605810768687,0.06006993037642832,0.06460715284188855,0.06947424354065583,0.074711971077947,0.08036637749355191,0.08646011787831924,0.0930121256481209,0.10003761254383631,0.1075480686313694,0.1155512623016306,0.12405124027055547,0.13304832757908513,0.14253912759318751,0.1525165282854895,0.16297031685951208,0.17388769630601614,0.18525226955849614,0.19705131149890426,0.2093248180563862,0.22202205352529583,0.23506781041387778,0.24838744317706227,0.26190686821649845,0.2755525638805203,0.28925157046418204,0.30293149020922155,0.3165204873040969,0.32994728788395083,0.3431411800306455,0.356032013772728,0.36855020108546455,0.3806267158908068,0.39219309405742514,0.40318143340067897,0.4135243936826319,0.423155196612059,0.43200762584442476,0.4400160269819074,0.44711530757337703,0.4532409371144152,0.45832894704729676,0.4623159307610068,0.46513904359122576,0.46672076024244824,0.4669096972771084,0.4657365237902475,0.46327017996375874,0.45957936169954094,0.45473252061950525,0.44879786373304825,0.4418428528443039,0.4339331971967193,0.4251340790232948,0.4155104362770281,0.40512696263093745,0.39404810747803726,0.3823380759313636,0.37006082882394664,0.3572800827088408,0.3440593098590924,0.33046173826777353,0.3165503588015608,0.3023879767698179,0.2880371820001083,0.27356032023829774,0.2590194929502416,0.2444765573218225,0.229993126258913,0.21563056838741285,0.20145000805321175,0.18751232532222625,0.17387815598036338,0.16060789153355656,0.14776167920773026,0.13539942194883456,0.12358077842281083,0.1123651630156264,0.10179310552413194,0.0918273583222043,0.08244634555167345,0.07363157628433459,0.06536443582258812,0.05762618569941634,0.05039796367840484,0.04366078375372276,0.0373955361501415,0.03158321567431252,0.026205856976495218,0.021245740637185692,0.016685023620098726,0.012505739119536277,0.00868979656039914,0.005218981598175982,0.0020749561189531015,-0.0007607417605942177,-0.0033066976931939076,-0.005581621100984359,-0.0076043451755075635,-0.009393826877715294,-0.010969146937963994,-0.012349509856018822,-0.013554243901050488,-0.014602801111637668,-0.01551475729576499,-0.016309812030825214,-0.0170077886636167,-0.017628634310345878,-0.018191710432450367,-0.0186905668066018,-0.019123024901250587,-0.019496695538687235,-0.0198185975421749,-0.020095157735949262,-0.020332210945218587,-0.02053499999616374,-0.02070817571593844,-0.02085579693266873,-0.02098133047545336,-0.02108765117436366,-0.02117704186044373,-0.02125119336571017,-0.021311204523151977,-0.021357622473698174,-0.021390760628805162,-0.02141052807775539,-0.021416243560126086,-0.021406633816466795,-0.021379833588299813,-0.02133338561812035,-0.02126424064939567,-0.02116875742656622,-0.021042702695044505,-0.020881251201216297,-0.020678985695269467,-0.020429922385771144,-0.020127573031032395,-0.019768731723456362,-0.019360659707123695,-0.01887337298200571,-0.01827034697034236,-0.01751418880637321,-0.016566637336335788,-0.015388563118467813,-0.013939968423004188,-0.012179987232180788,-0.01006688524023003,-0.007558059853385902,-0.004610040189878101,-0.0011784870799390074,0.0027818069342044633,0.0073169175983216015,0.012473788946188285,0.01830023329957523,0.024844931268261452,0.03215743175001901,0.04028815193062999,0.04928837728386758,0.05925163219902767,0.07021699745802337,0.08205045144675882,0.09461095843905316,0.10775486633571792,0.12133591323067008,0.13520522741096516,0.1492113273567621,0.16320012174135928,0.17701490943116294,0.19049637948570147,0.20348261115763652,0.21580907389273546,0.22730862732990217,0.2378115213011474,0.24714539583161713,0.25513528113956596,0.2616035976363812,0.26637015592656227,0.2692521568077371,0.27006378964750694,0.26865143937209035,0.2651326747496167,0.25970465799169334,0.25256096179928067,0.24389156936267817,0.23388287436154315,0.22271768096486738,0.2105752038310042,0.19763106810763872,0.18405730943182003,0.17002237392992672,0.15569111821770285,0.1412248094002212,0.1267811250719206,0.1125141533165683,0.09857439270729741,0.08510876417851342,0.0722610833792602,0.06017221893251635,0.04897949427004859,0.03875178427204054,0.029411233167263014,0.020949689602207444,0.013319923127578306,0.00642970622947434,0.0001418143294093185,-0.005725974215707104,-0.0114008781135515,-0.01715511229086866,-0.02330583800689652,-0.03021513495073016,-0.03829007311177208,-0.04798271954402928,-0.0597901383660963,-0.07425439076115989,-0.09196253497701577,-0.11440468093400673,-0.14367717490004672,-0.17412401301617286,-0.20002445717193024,-0.2165250677994957,-0.21963970387373652,-0.20624952291217416,-0.1741029809749879,-0.12181583266505228,-0.04887113112785236,0.04438077194838093,0.15672222633285726,0.28606828325199085,0.429466695389684,0.5830979168869993,0.7416330063539232,0.8904685583685278,1.0123465085077674,1.0945841983662514,1.1290726723215048,1.11227682342239,1.0452353933891894,0.9335609726136476,0.7874400001588047,0.6214657474110037,0.4491983458279576,0.2810984394031352,0.12596408991222288,-0.009545198752160507,-0.12090848058085145,-0.20574336744780025,-0.2638060291103523,-0.2969911932090345,-0.3084634284101376,-0.3007586691295498,-0.27936143987087975,-0.24930348688669468,-0.21483923337285063,-0.17944577946856316,-0.1458229022563246,-0.11589305576199008,-0.09080137095469507,-0.07091565574692385,-0.05582508185449748,-0.044301307483165055,-0.03546249062982389,-0.02877528078957352,-0.023753238072047836,-0.019956833201397087,-0.016993447516301392,-0.01451737296996063,-0.01222981213010242,-0.009878878153183456,-0.00725914810547208,-0.004210525518358715,-0.0006194735355188946,0.003580634084852233,0.008409512970030342,0.013839968132772773,0.01979789397130593,0.026162274269339807,0.03277547637464927,0.039760093107067775,0.047231912723432884,0.05520618948058474,0.06369274049138085,0.07269589335524196,0.0822145009472309,0.09224198204234292,0.10276632228593886,0.11377007419377062,0.12523035715195502,0.13711885741700156,0.14940182811578198,0.16204008924556282,0.1749890276739725,0.1881985971390338,0.20161331824913106,0.21517227848304402,0.22880913218991333,0.24246403824447058,0.2561189212409293,0.2696737053645841,0.2830199103654185,0.29605487784436363,0.3086817712532643,0.3208095758949131,0.3323530989230203,0.343232969342228,0.3533753801194551,0.3627107896011587,0.3711748969529295,0.3787092221937191,0.38526110719342016,0.39078371567284703,0.39523603320375256,0.39858286720881353,0.40079484696164275,0.40184842358678013,0.4017258700596982,0.40041528120679953,0.397910573705417,0.39420753816728143,0.3892105857057142,0.3829532508539951,0.37553587801209576,0.3670561922467149,0.35760929929125773,0.34728768554585965,0.33618121807736157,0.3243771446193351,0.3119600935720557,0.29901207400253205,0.2856124756444745,0.2718380688983282,0.2577630048312384,0.24345881517708687,0.2289944123364544,0.21443608937665853,0.19984752003171535,0.18528975870237874,0.17082124045610073,0.15649778102707004,0.14237257681617527,0.1284962048910408,0.11491671550848083,0.10168053441028413,0.0888320734481852,0.076413133716177,0.06446289697495447,0.05301792565194229,0.042112162841282524,0.03177693230382465,0.022043896697117666,0.012944190427846211,0.004456896401254356,-0.0034462682028109284,-0.010792899734984865,-0.017609901060427324,-0.02392345050972954,-0.02975902709543226,-0.035141423350609075,-0.0400947453388329,-0.04464241265416281,-0.04880715842115618,-0.052611029294857406,-0.05607538546080841,-0.05922090063503887,-0.06206756206407517,-0.06463467052493255,-0.06694084032512168,-0.06900399930264321,-0.07084138882599253,-0.07246956379415527,-0.07390439263661147,-0.07516105731333213,-0.07625405331478184,-0.0771971896619167,-0.07800358890618635,-0.07868568712953175,-0.07925523394438719,-0.0797233100486459,-0.08010069057800287,-0.08039783282443425,-0.08062452270824547,-0.08078985968023412,-0.0809022567216903,-0.08096944034439663,-0.08099845059062785,-0.08099564103315181,-0.0809666787752281,-0.08091654445060935,-0.08084953222354016,-0.0807692497887583,-0.0806776528316793,-0.08053710991894658,-0.08034176493298381,-0.08010952907326643,-0.07985557791405404,-0.07959235140438982,-0.0793295538681012,-0.07907415400379901,-0.07883038488487852,-0.07859974395951833,-0.07838099305068155,-0.0781701583561145,-0.07796053044834796,-0.07774266427469623,-0.07750437915725775,-0.07723075879291451,-0.07690415125333287,-0.07650416898496248,-0.07600768880903765,-0.07538885192157566,-0.07461906389337856,-0.07366699467003138,-0.07249857857190413,-0.07107701337952957,-0.06936270767178149,-0.06731325209824283,-0.06488349468908382,-0.0620255478492555,-0.058688788358496474,-0.054819857371325005,-0.05036266041704804,-0.04525836739975092,-0.03944541259830927,-0.03286190815593057,-0.0254744540825246,-0.017258428743119753,-0.00820280963029344,0.0016850954985650258,0.012379646368621846,0.023836873548402877,0.03599447901233959,0.04877183614079822,0.06206998972004881,0.07577165594229804,0.0897412224056549,0.10382474811416588,0.11784996347778391,0.1316262703123816,0.1449447418397648,0.15757812268764157,0.1692808288896564,0.17978894788535846,0.188882447227702,0.19645539627832412,0.20236246692439536,0.20648916352730698,0.2087541205553868,0.20910910258388857,0.20753900429499741,0.20406185073054575,0.19872889109337774,0.19162473913242123,0.18286717462332547,0.1726071074486799,0.16102857759799208,0.14834875516771295,0.1348179403612079,0.12066588314165035,0.10605745232331318,0.0912265748085035,0.07638728081634381,0.061730698288034055,0.04742505288681301,0.03361566799799619,0.020424964728939215,0.00795246190907289,-0.0037252239101300873,-0.014554378455123747,-0.02450418973031836,-0.03356674801805295,-0.04175704587862028,-0.04911297815024464,-0.05551930846005032,-0.06091347130779886,-0.06580893206872374,-0.07070029504679354,-0.07604501644771838,-0.08226340437893735,-0.08973861884963268,-0.09881667177071302,-0.10980642695483334,-0.1229796001163758,-0.13857075887145523,-0.15677732273793715,-0.17775956313540103,-0.2024074618202343,-0.22851261233168743,-0.2505948010294235,-0.26391101414266144,-0.2644930669264812,-0.2491476036612783,-0.21545609765276028,-0.16177485123199034,-0.08723499575529771,0.008257508395582945,0.12402187181370314,0.2586024760666563,0.409768873696872,0.5724846654311132,0.7314551373413196,0.8708156124923637,0.978009958653786,1.0437916405219037,1.0622237204538716,1.0306788584675222,0.9498177986985087,0.8257441566556992,0.672752276505329,0.5047083489183455,0.3335441177476986,0.1692568800287522,0.01990948597886164,-0.10836966100221883,-0.2112782904673997,-0.2871560125206632,-0.33780906161267016,-0.3656679559349394,-0.3735350767863788,-0.3645846685732094,-0.34236283880899016,-0.3107875581146361,-0.274148660218367,-0.23710774586969147,-0.2038886726806458,-0.17536835580955085,-0.1515479636833716,-0.13228415008035274,-0.11728008250219316,-0.10608544217399517,-0.09809642404430442,-0.09255573678507971,-0.08855260279171506,-0.0850649226284627,-0.08172908847539138,-0.07848051558967421,-0.0752005476632797,-0.07178519355626686,-0.06814512729679384,-0.06420568808110894,-0.0599068802735598,-0.055203373406583656,-0.05006450218071838,-0.044474266464589886,-0.03843133129492581,-0.03194770736482296,-0.02501101228140746,-0.017593728100472356,-0.009677074461330966,-0.0012476031472071405,0.00770280191474427,0.01717692465345953,0.02717221685394209,0.03768079815728807,0.04868945606065943,0.06017964591731213,0.07212749093656677,0.08450378218383887,0.09727397858060792,0.11039817848439579,0.12383077407712657,0.1375205616006117,0.1514109996258223,0.16544021457982697,0.17954100074575544,0.19364082026283555,0.20766180312635676,0.22152074718770562,0.2351330681760807,0.24847383065341866,0.26145661500398854,0.2739713656364514,0.2859158127981002,0.29719547436063476,0.3077236697091301,0.3174215121942338,0.32621790107408455,0.3340495214454297,0.3408608442436471,0.3466041262427253,0.35123941005528075,0.35473452413254397,0.3570650827643699,0.35821448607923,0.35817392004421866,0.35694235646504907,0.35452655298605346,0.35094105309018697,0.3462081860990205,0.3403580671727507,0.33342859731018726,0.32543788872484336,0.31638928026908075,0.30638164345968644,0.29551557284469987,0.2838885526793403,0.271594990892863,0.25872622324094946,0.24537047602013964,0.2316128639928827,0.21753539038750375,0.20321694689823816,0.18873331368519639,0.17415715937439974,0.15955804105774418,0.14500240429303685,0.13055358310395912,0.11627179998010397,0.10221416587693881,0.08843468021584164,0.07498423088406621,0.061910594234775906,0.04925843508701018,0.03706930672571781,0.025381650901724773,0.014230797831761066,0.0036513869891937863,-0.006314234243758068,-0.015673877364132775,-0.024446344522756097,-0.03265043942517497,-0.04030496733168017,-0.047428735057285544,-0.054040550971747106,-0.06015922499954534,-0.06580356861990165,-0.07099239486676306,-0.07574451832881633,-0.08007875514947517,-0.0840139230268917,-0.08756884121394598,-0.09076233053087182,-0.09361321449334174,-0.0961403202051317,-0.09836247653481653,-0.10029851390570707,-0.10196726429584442,-0.10338756123800523,-0.10457823981969665,-0.10555813668316119,-0.10634609002537244,-0.10696093959803826,-0.10742152670759866,-0.10774669421522735,-0.10795528653683047,-0.10806614964315756,-0.10809813539032727,-0.10807011300791355,-0.1079993188969871,-0.1078670717573113,-0.10767101359262675,-0.10742185634764997,-0.10712941947187504,-0.10680262991957289,-0.10644952214979214,-0.10607723812635833,-0.10569202731787451,-0.10529924669772056,-0.10490336074405412,-0.10450794143980963,-0.10411566827269891,-0.10372832823521153,-0.10334681582461336,-0.10297113304294833,-0.10260038939703707,-0.102232801898478,-0.10186569506364601,-0.10149550077660202,-0.1011176013502815,-0.10072602735406394,-0.10031383337583595,-0.09987318150826206,-0.09939534134878335,-0.09887068999961914,-0.09828871206776475,-0.09763799966499398,-0.09690625240785686,-0.09608027741768148,-0.09514598932057229,-0.0940884102474121,-0.09289340411142528,-0.09164200336539252,-0.09029881591824208,-0.0887497740324162,-0.08689074227373755,-0.08462751751141322,-0.08187582891803023,-0.07856133796956145,-0.07461963844535795,-0.06999625642815802,-0.06464665030407701,-0.05853621076261691,-0.05164026079666549,-0.04394405570247939,-0.035442783079710806,-0.026141562831390054,-0.016055447163936823,-0.005209420587133353,0.006361600085836406,0.018612765738412286,0.031489294950643114,0.04492647399922047,0.05884965685742892,0.07317426519517838,0.08779945986948098,0.10252034733304219,0.1170694372666787,0.13119582701132546,0.14466693759199004,0.15726851371773345,0.1688046237817037,0.17909765986108572,0.18798833771713572,0.19533569679516738,0.20101710022457023,0.2049282348187819,0.2069831110753069,0.2071140631757129,0.20526893561157625,0.20145272632774872,0.19580565843059836,0.18848794380869982,0.17966479169478297,0.16950640866576264,0.15818799864271954,0.14588976289091327,0.13279690001974986,0.11909960598282965,0.10499307407791572,0.09067749494695101,0.07635805657602138,0.06224494429541094,0.04854907232988766,0.03529402854092748,0.022585539230208267,0.010597313285340429,-0.0005412939799404651,-0.010745280825759405,-0.01997399908612724,-0.028231154168901748,-0.03556460556357021,-0.04206485167258454,-0.04786587070239399,-0.05314598747920961,-0.05812788040311345,-0.06307858144805108,-0.06830947616184355,-0.07417630366616991,-0.08107915665657867,-0.08935217825046035,-0.09982677339863626,-0.1134100065636872,-0.13040886329276277,-0.1505271593757214,-0.1728655408451106,-0.19592148397622453,-0.21758929528701826,-0.23516011153816385,-0.24532189973303356,-0.24439112065862864,-0.23086016040023918,-0.19966840325944837,-0.1462668669134634,-0.06827828983716068,0.03450286869671062,0.16011042861764818,0.3044064890572741,0.46108142834971694,0.6216539040310501,0.7754708528396574,0.9097039464384795,1.0109063810449506,1.0690262657513934,1.078292594029579,1.0372134857526314,0.9485761871948855,0.8194469634264373,0.6611694459062243,0.4893535205585436,0.31833328779193143,0.15626038607174436,0.010267986744426673,-0.1143728682062151,-0.21425326615931733,-0.28782642385647683,-0.3354076874020876,-0.35917453226324414,-0.36281128021867565,-0.3492190899013549,-0.32346962767046344,-0.29042550521210525,-0.25415358375442526,-0.2179249849377348,-0.18421508823172236,-0.15470352212141925,-0.13027416386875612,-0.11101513951250441,-0.09622100134900531,-0.0847861529887855,-0.0759892205082251,-0.06922989043580308,-0.06397083014840595,-0.05973768787130412,-0.05611909267816054,-0.05276665449102188,-0.04939496408033185,-0.04578159306492232,-0.04176709391201736,-0.037254999937224774,-0.032211825304549205,-0.02666706502638357,-0.020713194963514675,-0.014505429849316801,-0.00802484233243512,-0.0011228743302801446,0.006224692299053482,0.014037431972442685,0.022330275381708446,0.03111350949363406,0.040392777549954066,0.05016907906737858,0.06043876983755813,0.07119356192710621,0.08242052367758687,0.09410207970554348,0.10621601090245567,0.11873545443476738,0.13162890374387248,0.14486020854614717,0.15838857483289995,0.172170389147581,0.18621390722543701,0.20045926434458944,0.21480814979628945,0.22916552400204074,0.24343961851358123,0.2575419360129208,0.27138725031228483,0.284893606354152,0.2979823202112443,0.31057797908651963,0.32260844131320426,0.33400483635474293,0.34470156480483277,0.35463629838740823,0.36374997995666675,0.37198682349702983,0.379294314123169,0.38562320494544894,0.3909270330455941,0.3951615960841894,0.3982858372202903,0.4002619707431968,0.4010554820724547,0.40063191899241596,0.398812735908776,0.3955823055418099,0.3910417346903697,0.3852895572419406,0.37842173417263364,0.3705316535471937,0.3617101305189769,0.35204540732998274,0.3416231533108334,0.33052646044978645,0.3188358222482107,0.30662915013998404,0.29398178263597796,0.28096648533569957,0.2676534509272588,0.25411029918741784,0.24040207698155927,0.22659125826370144,0.21273774407646387,0.19889886255112071,0.18512936890756498,0.17148144545432592,0.15800470158853402,0.14474617379597438,0.13175032565105088,0.11905904781680281,0.10671165804487294,0.09474490117555671,0.08319294913776858,0.0720874009586785,0.06145737060950515,0.05132970151580712,0.04172872919060259,0.03267621623552998,0.024191352340861196,0.016290754285479516,0.008986179459874549,0.00226308643728553,-0.003907664795425145,-0.009554653690888865,-0.014705689836298542,-0.019387812953426464,-0.023627292898616502,-0.02744962966279533,-0.03087955337145573,-0.033941024284667796,-0.03665723279707466,-0.03905059943789918,-0.04114277487093321,-0.0429546398945451,-0.044506305441676726,-0.04581711257984763,-0.04690563251114852,-0.047789666572245926,-0.04848624623438049,-0.049011633103368674,-0.04938131891959999,-0.04961002555803907,-0.04971170502822495,-0.049699539474271644,-0.049585941174867046,-0.04938255254327404,-0.04910024612732994,-0.04874912460944648,-0.04833852080660992,-0.04787699767038135,-0.04737234862994496,-0.04683159925622357,-0.04626100598254597,-0.04566605537783239,-0.045051464145578216,-0.044421179123852135,-0.043777075414647953,-0.04309413645348122,-0.04237347007029621,-0.04162893275474997,-0.04087240580743735,-0.040113795339894266,-0.039361032274595434,-0.038620072344955535,-0.037894896095327354,-0.037187508846278444,-0.03649792797420841,-0.03582416394661794,-0.03516224719432318,-0.034506232959081166,-0.03384820129358789,-0.033178257061479165,-0.032484529937329205,-0.031753174406652596,-0.030968369765903225,-0.030112320122474872,-0.02916525439469912,-0.028105426311848515,-0.026909114414134763,-0.025550622052709745,-0.024002277389662083,-0.022234433398022606,-0.020215467861760712,-0.01791178337578658,-0.015287807345945521,-0.01231496022231165,-0.009017172374640565,-0.00529779790496784,-0.001045047906696808,0.003836400255739517,0.00942540084277315,0.015784339739693586,0.02295913445666589,0.030979234128705076,0.03985761951569261,0.04959080300236595,0.06015882859834363,0.07152527193808848,0.08363724028093181,0.09642537251105833,0.10980383913754066,0.12367034229428917,0.1379061157400848,0.1523759248585703,0.1669280666582425,0.181394950221302,0.1956754306869363,0.20955170621461525,0.22273346665591592,0.23496176151664566,0.24600899995678893,0.2556789507905432,0.2638067424863049,0.27025886316669023,0.27493316060850237,0.2777588422427542,0.2786964751546629,0.2777379860836503,0.27490666142333997,0.27025714722156036,0.26387544918034883,0.25587893265593376,0.24641629069430518,0.2356669133657131,0.22384092572846132,0.2111142593075751,0.19765650373815383,0.18371964372202826,0.1695346977471585,0.15531092967311735,0.14123584873114514,0.12747520952411368,0.1141730120265433,0.10145150158456885,0.08941116891599139,0.07813075011024395,0.06766722662840552,0.05805582530317582,0.049310018748211185,0.04142153736196979,0.03436037126548355,0.02807475675081598,0.022499762616413208,0.01760026754748242,0.013094834434345656,0.008616425101322718,0.003769489028625885,-0.0018700366476227892,-0.008754727135403022,-0.017365669986786878,-0.028212465097962755,-0.04183322470920161,-0.0588099028605852,-0.07952236569653208,-0.10238299823497563,-0.12517389127117903,-0.14548822804908831,-0.16073028426131283,-0.16811541503681643,-0.1646693575503002,-0.1472278789462474,-0.1124377517939807,-0.05676961304731877,0.021990379579508963,0.12409327780785888,0.24808600909617212,0.3903519052867525,0.5451107026052875,0.7044185416611517,0.8581679674472424,0.9940879293403694,1.0977437811006556,1.1547175949194697,1.1612460531021194,1.119204666608231,1.0328144958140342,0.9086401151335075,0.7555896130184602,0.5849145919581229,0.4102101684797423,0.24606263999713715,0.09903191707891945,-0.02674749481538269,-0.12833761647922587,-0.20431815107651025,-0.2547864841414542,-0.28135768357870716,-0.2871644996631567,-0.2759739169632322,-0.25177941522674985,-0.21960179638179558,-0.18368078640794683,-0.14744428495727252,-0.1135083653542524,-0.08367727612773294,-0.05894392637423155,-0.039490578284017246,-0.02468784280569045,-0.013339255354159049,-0.00471738459518573,0.001823408885536581,0.0068638825884599075,0.01091012948944851,0.01439357803978861,0.017670992166173474,0.021024471270714093,0.024661450230933548,0.028714699399776906,0.03324232460559692,0.03822776715216371,0.04357980381865833,0.04918032292699416,0.055161436141779915,0.06157574981756795,0.06844463692752462,0.07578571527546055,0.08361284749580543,0.09193614105362502,0.10076194824461022,0.1100928661951012,0.11992773686205274,0.13026164703305695,0.1410859283263299,0.15238815719074064,0.16415215490576937,0.17635798758153431,0.18898196615877721,0.20202480638227946,0.2154905714032603,0.22930364832871664,0.24338681966109044,0.2576637994886593,0.27205995145977263,0.2865015779888195,0.30091567850210893,0.315229949437831,0.32937278424609223,0.34327327338886215,0.3568612043400087,0.37006706158528135,0.38282202662234477,0.3950579779607272,0.4067074911218559,0.417703838639041,0.4279809900575028,0.43747361193433015,0.4461170678385093,0.453847418350911,0.46060142106431057,0.466316530583358,0.47093089852459796,0.47438337351646304,0.47659273956045367,0.47742901312791525,0.47692888928574007,0.47515182170348136,0.47215754709682994,0.46800608522761855,0.4627577389038194,0.45647309397954927,0.44921301935505237,0.4410386669767245,0.4320114718370976,0.42219315197485036,0.4116457084747825,0.4004314254678519,0.38861287013115015,0.3762528183074107,0.36341381166189285,0.3501584552164988,0.3365496362379465,0.32265052503910296,0.30852457497894853,0.2942355224626301,0.27984738694142536,0.2654244709127615,0.25103135992017794,0.2367329225533818,0.22259431044821093,0.20868095828664265,0.19505858379680352,0.1817931877529339,0.16895105397543989,0.15659874933087883,0.14480314370391206,0.1336274097959793,0.12305311371248769,0.11305513550287372,0.1036237790847857,0.09474865811920921,0.08641869601050388,0.07862212590637904,0.0713464906979039,0.06457864301948953,0.058304745248916934,0.05251026950731764,0.0471799976591825,0.042298021312347486,0.037847741818014834,0.03381187027073895,0.03017242750843203,0.02691074411235469,0.024007460407130924,0.02144255046005009,0.01919560222467835,0.017245722262144745,0.015571330972787222,0.014150158500298172,0.012959244731726029,0.011974939297472769,0.011172901571298476,0.010528100670318005,0.010014815455001913,0.009608522151086374,0.009311304428967042,0.009119132797089197,0.009022399816067615,0.009012030288305094,0.009079481257992515,0.009216742011108921,0.009416334075421588,0.009671311220485932,0.009975259457645323,0.010322297040031406,0.010707074462564034,0.011124774461950515,0.011571112016687481,0.012042334347058908,0.012535220915136813,0.013047083424781364,0.013575765821641746,0.01411964429315421,0.014677627268543533,0.015249155418822215,0.015834201656792,0.016433271137041582,0.017047401255948415,0.01767816165167738,0.018327654204182878,0.018998496001151135,0.01969975079626357,0.020437375076550066,0.021207658641849036,0.022010238218634327,0.022848163534166188,0.023727897316489673,0.024659315294437448,0.025655706197626436,0.026733771756459745,0.0279136267021255,0.02921879876659995,0.03067622868264265,0.032316270183799976,0.034172690004402574,0.0362826678795706,0.03868679654520651,0.04142908123554041,0.04455689899016104,0.04812096867390845,0.052175415085959846,0.05677777602627993,0.06198900229561617,0.06785257958668726,0.07438893826611288,0.08166288639729509,0.08972301516315001,0.09859891749995615,0.1083011880973244,0.11882142339821795,0.13013222159894672,0.14218718264916058,0.15492090825187912,0.16824900186344705,0.18206806869356354,0.1962557157052655,0.21067055723648911,0.22515267596064154,0.23952396565955475,0.25358740263418805,0.26712696493887395,0.27990763238126565,0.2916776480992229,0.30225892216605454,0.3114906590102087,0.3192114440853539,0.32528893508028367,0.32961986191890696,0.3321300267602574,0.3327743039984775,0.3315366402628303,0.32843005441769924,0.3234966375625785,0.31680755303208513,0.3084630363959519,0.2985923954590363,0.28735401026129365,0.2749353330778148,0.2615528884188029,0.24745227302958708,0.23290815589058778,0.2181980981759591,0.20340221810196282,0.18869824910450683,0.1742793104445139,0.1603118432628865,0.14693561058047078,0.13426369729807267,0.12238251019642656,0.1113517779362437,0.10120455105817946,0.09194720198284691,0.0835594247994776,0.07599404629812989,0.06917667800314913,0.06300615863224358,0.05735464878307736,0.052067630933256275,0.04696390944034934,0.04191901465047031,0.03648246328493742,0.02965518809797608,0.020670416385177682,0.009024694204742027,-0.005522113622509648,-0.022946823513173394,-0.042962933121207636,-0.06502062133796742,-0.08832018378922032,-0.11055776901333339,-0.12814927365823375,-0.1376799186553346,-0.13594368905434806,-0.11994340877554902,-0.08689074288628759,-0.03420619760099391,0.04048087971876877,0.13976914103705784,0.26317044503479997,0.4049188773558865,0.5580826633198253,0.7147026861960947,0.8657924872035491,1.0013382655108076,1.1102988782361014,1.1806058404475372,1.1992754448555973,1.1613732259997969,1.0764180168109816,0.9550386387760645,0.8075967968095706,0.6441870081579238,0.4746365720266386,0.30850556957428754,0.15508686391316243,0.023366097276941892,-0.08219876440848141,-0.16215798251022157,-0.2173365347574651,-0.24928527552312993,-0.2602809358237897,-0.2533261233196828,-0.23214932231468258,-0.20120489375632783,-0.1656583083079016,-0.12985013525347422,-0.09591030746375705,-0.06537711194175608,-0.03928395386878613,-0.01815935660450536,-0.0020269616868650547,0.009594471167809497,0.017691064064876454,0.023731817278071617,0.028604741378848844,0.03257590577616034,0.035986413619217845,0.039125518059975814,0.04223062225313989,0.04548727935615499,0.049029192529213055,0.052938214935248626,0.05724434973994898,0.0619257501117394,0.06693909294744484,0.07234910956702055,0.07818823579337808,0.08447819093539058,0.09123716637175129,0.09847982625889214,0.10621730753100254,0.11445721990000109,0.1232036458555548,0.13245714066506775,0.1422147323737052,0.15246992180435814,0.163212682557667,0.17442946101200818,0.18610317632352286,0.1982247861228136,0.2108335892020996,0.22387287458376753,0.23726840294509424,0.25094645314215885,0.2648336744820316,0.27885719620561716,0.2929446943243586,0.3070243917485996,0.32102505828752953,0.3348760106492204,0.34850711244060867,0.36184877416752964,0.3748319532346664,0.3873881539455837,0.39944942750271134,0.410948372007376,0.4218181324597543,0.43199240075890366,0.44140541570274866,0.4499919629881056,0.4576873752106451,0.4644275662907496,0.47014953759169914,0.4747912668905062,0.47829129071441245,0.48058869248953573,0.4815568768992313,0.48111727058258574,0.47933815219221776,0.4762884143438422,0.4720365270724856,0.4666505378324738,0.4601980714974489,0.4527463303603586,0.44436209413346534,0.43511171994832276,0.4250611423558087,0.4142758733261044,0.40282100224870676,0.3907611959323987,0.37816069860529333,0.36508333191480496,0.35159249492766476,0.3377511641298863,0.32362189342681724,0.30926681414310486,0.2947476350227048,0.28012564222889,0.2654616993442145,0.2508162473705679,0.23624930472913858,0.22182046726043292,0.20758890822423798,0.1936133782996763,0.17995220558516986,0.16666329559845725,0.15380413127655956,0.14143175994725857,0.1296023341786638,0.11837098972141542,0.10778876531757524,0.09783805723417134,0.08848917239227976,0.07972301045685642,0.07152046686499386,0.06386243282595525,0.0567297953211515,0.05010343710415118,0.043964236700663614,0.038293068408564744,0.033070802297879384,0.028278304210789237,0.02389643576161992,0.019906054336860202,0.01628801309514892,0.013023161132326128,0.010092429443010493,0.007476971731169982,0.005157974411078334,0.00311661966916324,0.0013340854640021503,-0.0002084544736698146,-0.001529830640965144,-0.0026488777628425296,-0.0035844347921092467,-0.004355344909416609,-0.004980455523263188,-0.005478618269993991,-0.005868689013801477,-0.006169527846723122,-0.006399999088643806,-0.0065789073950064175,-0.006704034429735709,-0.006770405629721479,-0.0067863075857885645,-0.006759489364790121,-0.006697112090236404,-0.006605742048525387,-0.006491350688941221,-0.006359314623655014,-0.006214415627724635,-0.006060840639094321,-0.005902181758595624,-0.005741436249946075,-0.0055810065397507045,-0.005422700217500912,-0.005267730035574555,-0.00511671390923662,-0.004969674916638838,-0.004826041298819436,-0.004684646459703427,-0.004543728966102579,-0.004400932547715632,-0.004253306097127464,-0.004097303669810234,-0.003928784484122457,-0.0037430129213099784,-0.0035346585255044277,-0.00329779600372502,-0.0030259052258770876,-0.002711885905472989,-0.0023658668543466554,-0.0019738636579885367,-0.0014953593710325536,-0.0008896416681324001,-0.00011580284395912386,0.0008672601867956904,0.0021008458894218205,0.0036264481091884946,0.005485756138791149,0.007721021013838876,0.0103759129192353,0.01349455263630731,0.017121256326368944,0.021300535530709166,0.02607709717059939,0.03149584354729234,0.03760187234201733,0.04444047661599674,0.05205714481042215,0.06049756074646983,0.0698091241801547,0.08011045007686854,0.09134521860405953,0.10336003109472935,0.11600115507155821,0.12911452424693848,0.14254573852292424,0.15614006009183443,0.16974228539309225,0.18319671622990857,0.19634731084799859,0.20903769368277278,0.22111115535932116,0.2324106526924446,0.242778808686606,0.2520579125359636,0.26008991962435724,0.2667164515253297,0.2717787960020933,0.2751179070075537,0.27657440468430255,0.2759858030735822,0.27321856227515723,0.268429200005758,0.26183774265970766,0.2536570294625411,0.244091296198409,0.233337289020318,0.22158486931955687,0.2090170144020732,0.1958098174885184,0.1821324877142177,0.16814735012918722,0.15400984569809714,0.13986853130032584,0.12586507972992458,0.11213427969563462,0.09880403582085186,0.08599536864368065,0.07382241461689736,0.06239242610796037,0.051805771399015994,0.04215593468687044,0.033444807703472884,0.025525679409097248,0.018431266632079557,0.012136679789552476,0.006545397602520639,0.0014892670958388879,-0.0032714964017779343,-0.008048309257767948,-0.013224219535703404,-0.019253906995303684,-0.026663683092426282,-0.036051490979087046,-0.048086905503431684,-0.0634934867675496,-0.0823485183742326,-0.10374155505679121,-0.12631467349000156,-0.14828906113104995,-0.16746489833527106,-0.18122029492086864,-0.18651179047379707,-0.1798750271573505,-0.1574247579172422,-0.11674401760171009,-0.055282871182182246,0.029698285404967936,0.1385590244395333,0.26927867889069645,0.4174563424166095,0.5763108693646594,0.7366808747713027,0.8870247343624825,1.013457875290821,1.1028546808096196,1.1476946394611716,1.1443014520718948,1.092566032871246,0.9959465147399372,0.8614682968221659,0.6997240222597846,0.5248735479712043,0.353198057604698,0.19300693721273446,0.05003132219536484,-0.07125981749040364,-0.16800866361029906,-0.23896854965316566,-0.28450396083084306,-0.306590534078268,-0.3088150580533,-0.29508172197904947,-0.2693840282543941,-0.2365885444298866,-0.20076515051117672,-0.16518041547155418,-0.13229785030752897,-0.10377788626477333,-0.08047763919196199,-0.06245090046087853,-0.04894813696644353,-0.03870403452377586,-0.031044034725180414,-0.025348895480359804,-0.02106055464660761,-0.0176935991586286,-0.014835265028554132,-0.01214543734593126,-0.0093566502777273,-0.006274087068322747,-0.0027755800395219002,0.0011883894094542628,0.005594690801963339,0.010347544583952524,0.015358061385242988,0.020766963589021723,0.026612274647905502,0.03291621034047484,0.039697192499986184,0.04696984901438582,0.05474501382630165,0.06302972693306293,0.07182723438667082,0.08113698829381806,0.09095464681587703,0.10127207416892597,0.11207734062371086,0.12335472250567042,0.1350847021949296,0.14724396812629253,0.15981194266593163,0.17281933061448124,0.1862093262852099,0.1998999932478229,0.2138105553195109,0.2278614407065668,0.24197428200441973,0.25607191619761893,0.27007838465986717,0.2839189331539689,0.29752001183186566,0.31080927523461854,0.3237155822924415,0.33616899632465125,0.34810078503970127,0.35944342053516576,0.37013057929776805,0.3800971422033384,0.3892791945168414,0.39761402589236594,0.4050401303731428,0.4114972268577337,0.4169263230175779,0.4212696526581513,0.42447065397408656,0.4264739695491371,0.42718385380348645,0.4264767677567312,0.42441317744619395,0.42106428020586995,0.41650062170499247,0.4107920959480353,0.4040079452746983,0.3962167603599292,0.3874864802139099,0.37788439218206543,0.3674771319450398,0.3563306854612395,0.34451091958386615,0.33208430332707267,0.319116834349464,0.3056738586449059,0.29182007054249365,0.27761951270656,0.26313557613668315,0.24843100016765268,0.23356787246952113,0.21860762904757008,0.20361105424232775,0.1886382807295306,0.17374878952018155,0.15900140996051038,0.144454319731994,0.13016504485131872,0.11619045967043531,0.1025867868765232,0.08940959749200669,0.076713810874523,0.06455369471697078,0.052982865047478574,0.042052575736398985,0.031764779540925644,0.022093276585526244,0.01301690340195354,0.004514794903194107,-0.003433615616552499,-0.01084859648184216,-0.017750117636008127,-0.024157850641150825,-0.030091168678154194,-0.03556914654666157,-0.040610560665091756,-0.04523388907063247,-0.0494573114192966,-0.05329907050329804,-0.056778535167498444,-0.05991512665571383,-0.0627279678305371,-0.06523588317332674,-0.06745739878421489,-0.06941074238210401,-0.07111384330467153,-0.07258433250836287,-0.07383954256839578,-0.07489650767876026,-0.07577196365221621,-0.07648234792029768,-0.077043799533308,-0.07747215916032242,-0.07778296908918801,-0.07799147322652325,-0.07811261709771841,-0.07816104784693441,-0.07815111484306106,-0.07809692823309507,-0.07801240775532414,-0.07789540814627867,-0.07771000063593253,-0.07746851456150826,-0.07718583400287568,-0.0768754071781304,-0.07654924644359376,-0.076217928293812,-0.07589059336155757,-0.07557494641782814,-0.07527725637184739,-0.07500235627106372,-0.0747536433011517,-0.07453307878601152,-0.07434118818776879,-0.07417690926436687,-0.0740367210646754,-0.0739152445182327,-0.07380566336425244,-0.07369972548017382,-0.07358774288166167,-0.07345859172260641,-0.07329971229512398,-0.07309710902955564,-0.07283535049446847,-0.07249756939665522,-0.07206546258113421,-0.07151929103114865,-0.07083787986816793,-0.06999861835188699,-0.06897745988022685,-0.06774892198933209,-0.06628608635357482,-0.06456059878555216,-0.06254266923608658,-0.06024407304864139,-0.05761551080086845,-0.05454287605800052,-0.05092653836020958,-0.046681346104062715,-0.04173662654250984,-0.03603618578490111,-0.029538308796975415,-0.022215759400869235,-0.014055780275095528,-0.0050600929545733505,0.004755102169390665,0.015359125849091411,0.026706819980452854,0.038738547602986555,0.05138019289981884,0.0645431421422833,0.07812407009705191,0.09200501711926796,0.10605354185841116,0.12015850106478443,0.1341323263853542,0.14769562846852957,0.16059311487719619,0.1725943379328128,0.18349369471544047,0.1931104270636983,0.2012886215747925,0.2078972096045069,0.2128299672672175,0.21600551543586716,0.21736731974198445,0.21688369057567844,0.2145477830856377,0.21037759717913093,0.204415977522008,0.19670755877092008,0.18737108869125055,0.17664503307677762,0.16476063993133,0.151938721824842,0.138389655893319,0.12431338383888792,0.10989941192976417,0.09532681100026003,0.08076421645079362,0.06636982824785154,0.052291410924045316,0.03866629357807378,0.025621369874740427,0.013273098044920776,0.0017275008856118164,-0.008750110629213543,-0.01771497794086514,-0.025465614027607483,-0.0323337890187283,-0.03863071888117901,-0.044647065419564674,-0.050652936276159674,-0.056897884930884185,-0.06361091070131995,-0.07100045874270088,-0.0792544200479336,-0.08854013144756788,-0.09900437560981544,-0.11077338104053781,-0.12395282208327713,-0.13862781891921094,-0.1548629375671813,-0.1727021898836757,-0.1921690335628747,-0.2132663721365819,-0.2356794788387494,-0.2546668312812773,-0.2642713947299401,-0.25967842387791046,-0.23721627356519687,-0.19435639877866315,-0.12971335465190653,-0.04304479646541933,0.06474852035350438,0.19162274023066359,0.33439090744528593,0.4887229661295385,0.6490195273578669,0.8035100867411774,0.9355055103695809,1.0319532629344346,1.0839822343341108,1.0869034843574916,1.0402107619621899,0.9475793541816018,0.8167496638662746,0.6588084155962078,0.48760257113873673,0.31532929284095945,0.15189085626341214,0.004894650179631151,-0.12034682342366969,-0.22081594934690263,-0.2955147979946724,-0.3417161842162912,-0.3630574905197889,-0.36499374090759795,-0.3524246085658553,-0.3296944158644683,-0.30059213435711446,-0.2683513847811619,-0.23565043705778438,-0.20461222100213858,-0.17680438569438903,-0.15323925757930074,-0.13437381236216608,-0.12010967493200958,-0.10979311936160999,-0.10221931704500935,-0.09622928233771687,-0.09142342603111066,-0.08749583839699158,-0.08417020194221563,-0.08119979140871005,-0.07836747377346304,-0.07548570824852764,-0.07239654628101436,-0.06897163212475375,-0.06511261118376042,-0.060751848777630006,-0.05585149519513876,-0.0504032929601348,-0.044428576831526664,-0.03797827380329047,-0.031132853493080197,-0.023878626913927236,-0.016129492618096316,-0.007870684396352537,0.0009074507603849275,0.010209452661065686,0.02003474791447412,0.030377649929251793,0.041227358913885105,0.05256796187673269,0.0643784326259842,0.07663263176968815,0.0892993067157362,0.10234209167189595,0.11571950764576278,0.1293849624447916,0.14328675067628002,0.15736805374740376,0.17156693986516433,0.18581636403642302,0.200044168067884,0.21417378498455636,0.22817824328469774,0.24198663168620727,0.2554895123374897,0.2685839401322521,0.2811734627094537,0.29316812045333923,0.3044844464934235,0.3150454667045202,0.3247807070848234,0.3336262206998566,0.341524563333033,0.3484247835141501,0.3542824225182675,0.3590595143657272,0.362724585822147,0.3652526563984278,0.36662523835074073,0.36683033668053683,0.3658624491345458,0.3637225662047715,0.3604181711284966,0.3559632398882816,0.35036960620132684,0.3435911272537618,0.335694538119809,0.3267748000054514,0.31692443123841607,0.30623350726818316,0.29478966069915946,0.2826781074029635,0.2699816934040225,0.2567808345012801,0.24315350361539947,0.22917523078881435,0.21491910318569502,0.2004557650919669,0.1858534179152718,0.17117782018502548,0.1564922875523785,0.1418576927902371,0.12733246579322358,0.11297259357773416,0.0988316202819006,0.08496064716560836,0.07140845980533295,0.05822242402384554,0.04544795598571762,0.03312803215082071,0.021303186100748762,0.010011508538863644,-0.0007089448689324342,-0.010827529712373846,-0.020357074554600514,-0.029315474073826734,-0.03772055119138022,-0.04559005707169093,-0.05294167112231067,-0.05979300099388352,-0.06616158258016543,-0.07206488001801614,-0.07752028568741338,-0.08254512021143075,-0.08715663245625258,-0.09137199953116809,-0.0952083267885812,-0.09868264782399491,-0.101811924476022,-0.10461304682638098,-0.1071028331999023,-0.10929803016451835,-0.1112153125312702,-0.11287128335430631,-0.11428247393088141,-0.11546534380135953,-0.11643628074920948,-0.11721160080100812,-0.11780754822643874,-0.1182402955382931,-0.1185259434924687,-0.11868052108797061,-0.1187200818815192,-0.11866206036004512,-0.11852494346416291,-0.11832484552817049,-0.11803961402210221,-0.1176690594512821,-0.11722576888219051,-0.11672136738903,-0.11616651805372533,-0.11557092196592324,-0.11494331822299313,-0.11429148393002672,-0.11362223419983758,-0.11294142215296155,-0.11225393891765696,-0.11156371362990453,-0.11087371343340695,-0.11018594347958882,-0.10950144692759786,-0.10882030494430321,-0.10814163670429704,-0.10746360083509422,-0.10678344883582132,-0.10609754073003357,-0.10540127918672819,-0.1046891048826238,-0.10395449650216194,-0.10318997073750619,-0.10238708228854293,-0.1015364238628795,-0.10062762617584659,-0.0996493579504967,-0.09858932591760544,-0.09743427481566876,-0.09616998739090639,-0.09478128439726018,-0.09325333206825011,-0.09167365602167356,-0.09000796184543952,-0.08813084708363568,-0.08592879989300206,-0.08330019904293363,-0.08015531391547304,-0.07641630450532116,-0.07201722141983058,-0.06690400587901033,-0.06103448971551227,-0.0543783953746517,-0.04691733591439324,-0.03864481500536078,-0.029566226930814545,-0.019698856586684136,-0.009071879481546901,0.0022736382633590842,0.014284739914164547,0.02689657812432591,0.04003241493465302,0.053603621773294,0.06750967945577009,0.08163817818492358,0.09586481755095175,0.11004401563443972,0.1239415898767831,0.1373025605311718,0.14989415078223775,0.1615058591225766,0.17194945935277636,0.18105900058137273,0.18869080722487927,0.1947234790077765,0.19905789096252655,0.20161719342954973,0.2023468038578516,0.201213384765139,0.19820120334804853,0.1933294783110814,0.18673824234411301,0.1785906666666943,0.16905399125863424,0.15829952486003332,0.14650264497126053,0.13384279785296116,0.12050349852606325,0.10667233077174426,0.09254094713148152,0.07830506890701971,0.0641644861603871,0.050323057713859025,0.03691716737653459,0.02399150756576147,0.011709155349690675,0.0002014860240356119,-0.01043729302615439,-0.020150142326526142,-0.02891718309501423,-0.03675562641275375,-0.04371980357079951,-0.04990121308699028,-0.05542852138984993,-0.06046756281860158,-0.06522133962314561,-0.06993002196407447,-0.07487094791266583,-0.08035862345089567,-0.08656416008827623,-0.09404694528793019,-0.10407947332372025,-0.11742235347813583,-0.13428386703569048,-0.15431935037195654,-0.1766298112663796,-0.1997635248988334,-0.22171643862661297,-0.2399321719844912,-0.2513020166847013,-0.2530473507377028,-0.24328182471413956,-0.21622743858812932,-0.1675715142691987,-0.09495002604366067,0.0020523994251993027,0.1219024830972327,0.26111829355540267,0.41426924700568407,0.5739761072774672,0.7309109858229592,0.8737884011353431,0.9894271315353104,1.0660791161209697,1.0961373103353182,1.0762553355525255,1.0073474790779087,0.8945886941477229,0.7474145999294299,0.5795214815215516,0.40674902632790505,0.23884498431029322,0.08394669158614826,-0.05165766287866834,-0.16364417191147124,-0.24965321013302036,-0.30928943395709174,-0.3441217815907781,-0.35727077978747185,-0.35116799939706905,-0.3309407003157051,-0.301582102895073,-0.2673369415100727,-0.2317009661667092,-0.19742094206686306,-0.16649464960820243,-0.1401708843842193,-0.11894945718416478,-0.10255510044770055,-0.08942592591808832,-0.07870066617492125,-0.07000822229529309,-0.06300083682720382,-0.057354093789530915,-0.05276691867203972,-0.04896157843537273,-0.045683681511065916,-0.042702177801537816,-0.03980935868009377,-0.036820856990918846,-0.033575647049088775,-0.029936044640562636,-0.02578771937073955,-0.021039736413565133,-0.015624517223987354,-0.009497824728224531,-0.0026387633233775484,0.004950221122562534,0.01324334127073409,0.022191468311376052,0.031722131963846885,0.041739520476613175,0.05212448062727583,0.06275216150016401,0.07380282324011514,0.08534551040154577,0.09734803509108889,0.1097757155864695,0.12259104629572429,0.1357532806680608,0.14921842652942374,0.16293924608244426,0.17686525590647242,0.19094272695756165,0.20511468456850296,0.21932090844877222,0.2334979326845656,0.24757904573878162,0.26149429045105743,0.2751704640377141,0.28853111809179355,0.3014965585830406,0.3139838458579363,0.32590679463964844,0.3371759740280641,0.3476987074997757,0.3573791784030648,0.36615828278065343,0.3739940026308226,0.3808296552024096,0.3866162375125141,0.39131242634647184,0.3948845782578717,0.3973067295685508,0.3985605963685999,0.39863557451635395,0.3975287396383985,0.39524484712956903,0.39179633215295245,0.3872033096398774,0.3814935742899285,0.37470260057093774,0.36687352713514415,0.35805687679156695,0.3483105876917287,0.33770026843299966,0.3262992073810068,0.31418837266960387,0.301456412200916,0.2881996536453101,0.2745221044414111,0.26053545179606685,0.24632827537777696,0.2319199819358766,0.21739407520725193,0.20283385395206263,0.1883172284357654,0.17391672042907574,0.15969946320798636,0.14572720155373084,0.1320562917528392,0.11873770159709977,0.1058170103835777,0.09333440891458164,0.08132469952834188,0.06981729968318988,0.05883624531479316,0.04840018465838453,0.03852237745448659,0.0292106949488825,0.020467619892629837,0.012290246542037314,0.00467028065869918,-0.0024059604905279502,-0.008957548133514747,-0.015002858281930664,-0.0205297138238596,-0.025559202262624547,-0.030119124313306364,-0.034236562075431784,-0.037937915059292455,-0.04124878723572456,-0.044193977748074605,-0.04679748091219791,-0.049082486216464986,-0.051071378321751425,-0.052785737061444835,-0.05424633744144212,-0.05547314964015345,-0.05648533900849599,-0.05730126606989875,-0.05793848652029994,-0.05841375122814972,-0.05874300623440703,-0.058941392752541615,-0.05902324716853331,-0.059002101040872536,-0.0588906811005596,-0.05870090925110529,-0.05844390256853069,-0.058129973301366884,-0.05776862887065542,-0.057368571869948023,-0.056926108902323955,-0.0564239238162602,-0.05587555410543428,-0.05529466212150051,-0.054693545975718905,-0.054083139538954154,-0.05347301244167764,-0.05287137007396602,-0.052285053585501916,-0.05171953988557243,-0.0511789416430714,-0.05066600581966242,-0.0501817651468071,-0.04972508714943451,-0.049293363552136905,-0.04888262183911159,-0.04848752525416179,-0.04810137280069567,-0.04771609924172756,-0.04732227509987746,-0.04690910665737093,-0.04646443595603866,-0.045974740797317525,-0.045425134742249774,-0.04479936711148354,-0.04407982298527284,-0.04324752320347571,-0.042282124365557325,-0.04116191883058844,-0.03986383471724587,-0.03836343590380921,-0.03663492202816692,-0.03465112848781172,-0.03239090947762827,-0.029894172487802864,-0.02706874011807354,-0.023796005672985298,-0.019972221765330325,-0.015508499929998558,-0.010330810623992085,-0.0043799832264159,0.002388293961515095,0.010003473716494281,0.01848014989309724,0.02781805742379818,0.0380020723189596,0.04900221166685868,0.060773633632825126,0.07325638629302804,0.08637469854662977,0.10003771092366148,0.11413970503202356,0.12856010355751984,0.14316347026383963,0.1577995106107746,0.17235279177920557,0.18660735353164049,0.2002741746727152,0.21309346949773408,0.22483468779261706,0.23529651483393502,0.24430687138889706,0.2517229137153702,0.25743103356184655,0.26134685816746706,0.26341525026201396,0.26361030806591496,0.261935365290236,0.25842299113668726,0.2531349902976208,0.24616240295603697,0.23762550478556302,0.2276241083825127,0.21633573876971993,0.20402682264596106,0.1909464737589349,0.17732631857571574,0.16338049628272358,0.1493056587857392,0.13528097070986866,0.12146810939959767,0.10801126491875546,0.09503714005053183,0.08265495029744349,0.07095647434278234,0.060016332937533286,0.04989179168252158,0.040622629252931114,0.032231137043318134,0.025629003834035442,0.021402698825090043,0.018453070862098245,0.015816041660121447,0.012675885733341158,0.008365230395067019,0.002365055757724329,-0.00569530526712987,-0.016038166968816464,-0.028737490837522917,-0.043718885564337805,-0.06075960704120157,-0.0794885583609379,-0.09938628981723284,-0.11978499890468723,-0.13986853031873916,-0.15867237595571512,-0.175083674912807,-0.18782847594947114,-0.1935543469266697,-0.18625592134894559,-0.16109505806893237,-0.11474874677998675,-0.04540910801628194,0.04721660684724251,0.1619060155948699,0.2959216051700162,0.44501073167558647,0.6034056203734552,0.7638913579110678,0.9130256362317289,1.0345058631126893,1.1162567403957209,1.1506054668620898,1.1342817082104524,1.0684175965353584,0.9585477303273178,0.8143614470177865,0.6489668070358399,0.47632203578106763,0.30806009317553645,0.15334682209682599,0.018880948378208067,-0.09110591919168277,-0.1748492888683303,-0.23209594375427436,-0.26204508811629396,-0.26991837622364084,-0.26110439266907765,-0.24039134662213285,-0.2119670718290931,-0.17941902661292478,-0.14573429387338763,-0.11329958108696335,-0.0839012203068893,-0.05872516816308561,-0.03835700586226862,-0.022781939187873263,-0.011324388996095315,-0.0023056224669604944,0.004963749070264286,0.010825689242434058,0.015595879525187987,0.01956371924296071,0.02299232556896389,0.026118533525199314,0.029152895982453332,0.03227969207514766,0.035657124241621055,0.03941732506929449,0.04366615477871022,0.04848319143919397,0.05392173096886735,0.06000878713462983,0.06674509155217029,0.07410509368595924,0.08203696084926818,0.09046257820414197,0.09927754876141558,0.10844979421370272,0.11813700461072267,0.1283441955108606,0.13906349904524254,0.15028186350303596,0.16198105333147783,0.17413764913583285,0.18672304767942077,0.19970346188360116,0.2130399208278077,0.22668826974949732,0.24059917000503034,0.2547180485613966,0.268984998792157,0.28333490262737776,0.2976974581551829,0.3119971796217356,0.32615339743127486,0.3400802581460608,0.35368672448641064,0.36689300003185965,0.37967347402363666,0.39192671591257566,0.40354833486054825,0.41444273395853765,0.42452262806409796,0.4337087292558268,0.4419304757272847,0.44912610652863905,0.4552426615666809,0.4602359816047992,0.4640707082629972,0.46672028401789056,0.46816695220270454,0.4684017570072772,0.46742454347805507,0.4652439575180971,0.46187744588707463,0.45735125620126366,0.4517004369335575,0.44496883741345783,0.4372091078270829,0.42848269921714677,0.41885986348298776,0.40841737849609666,0.39716810372460815,0.38518246073380635,0.3725688418453333,0.3594308297785565,0.34586719765058654,0.331971908976239,0.3178341176680901,0.3035381680364395,0.28916359478933035,0.27478512303250896,0.26047266826948456,0.24629133640148915,0.2323014237274969,0.21855841694418765,0.20511299314600204,0.19201102057557262,0.17929399498670912,0.16699977347293368,0.15516159753659126,0.14380789907775146,0.1329623003942233,0.12264361418152882,0.11286584353294338,0.10363818193946904,0.09497235478402768,0.08689993281748508,0.0794021578610385,0.07245341815761162,0.06602863979255393,0.060103286693624525,0.054653360631016265,0.04965540121734032,0.04508648590762858,0.04092422999933738,0.037146786632337635,0.033732846788929315,0.03066163929383116,0.027912930814186207,0.025467025859552808,0.023304768918229093,0.02140763388522781,0.019757756618175713,0.018337819654087237,0.017131043372400383,0.01612118599497436,0.015292543586090553,0.014629950052450463,0.014118777143178734,0.013744934449821429,0.013494869406346125,0.013355567289142027,0.013314551217020276,0.01335966243154026,0.013478288374051278,0.013658074701011163,0.01388720489515392,0.0141572893002509,0.01448763771706429,0.014874177994724113,0.015305461394193278,0.015771217571294315,0.016262354576707508,0.016770958855973257,0.017290295249489607,0.01781480699251359,0.01834011571516059,0.018863021442405953,0.01938150259408258,0.019894715984882457,0.020402996824356142,0.02090785871691362,0.021411993661822767,0.021919272053210762,0.02243474268006277,0.022964632726223743,0.023516347770396885,0.024098471786143657,0.024720767141885192,0.025394174600899783,0.026130813321326902,0.02694398085616275,0.027848153153262827,0.02885898455534072,0.02999330779997109,0.031269134019584637,0.03270565274147219,0.03431919900077462,0.03607385379186435,0.03803932809424742,0.040317358077428984,0.04300021665751061,0.046170410071121715,0.049900676124079016,0.05425398419139285,0.05928353521726262,0.06503276171508941,0.07153532776745741,0.07881512902614574,0.08688629271212041,0.09575317761555535,0.10541037409580167,0.11584270408140702,0.12702522107010447,0.13892321012884057,0.15149218789373314,0.1646779025700987,0.17841644995532477,0.19273668924153256,0.20747318839199363,0.22230532410664092,0.2369370086866729,0.25109669003459056,0.26453734360162046,0.2770363868297151,0.28839571236818573,0.29844174746107544,0.30702545495367917,0.31402233329257456,0.319332416525611,0.3228802743019226,0.324615011871907,0.3245102700872408,0.3225642254008756,0.3187995898670398,0.31326358574582447,0.306027602749492,0.2971872887264027,0.2868242092619424,0.2750920759547345,0.26229282713889396,0.24870980035267892,0.234603868409838,0.22021343939957352,0.20575445668659625,0.1914203989110895,0.17738227998872608,0.16378864911063398,0.15076559074344847,0.1384167246292775,0.1268232057857182,0.11604372450582523,0.10611450635815815,0.09704931218674973,0.08883943811111913,0.08145371552625093,0.07483851110262708,0.0689177267862056,0.06359279979842838,0.058753361059165704,0.05502141582343078,0.05166007200091763,0.04728462357985028,0.04084745041755709,0.0316380182404878,0.01928287864420259,0.003745669093385814,-0.014672887078195595,-0.03533498066763305,-0.05726571660291291,-0.07915311394289526,-0.09934810669858962,-0.1167561473443546,-0.12942804392608628,-0.13031618975455458,-0.11367901613447402,-0.07548469055850512,-0.013411116707269272,0.07315406555065661,0.18311348015866175,0.3136600148724002,0.46027682125936475,0.6167373146991568,0.7751051743833204,0.9257052093627858,1.0552304750174717,1.1492452738668737,1.19778420665185,1.195600068974874,1.142163851299846,1.0416647389522502,0.9030101121192082,0.7398255458490938,0.5681073361739442,0.39872149153277286,0.24088392396509295,0.10170564558351396,-0.013859463567112311,-0.10301468375586638,-0.16512046714507123,-0.20169443779172086,-0.21595646520044232,-0.21030732699717944,-0.19011066855888642,-0.16061028391403076,-0.1262459648436102,-0.0906535008811063,-0.05666467608775917,-0.026306905331509117,-0.0008029007443271629,0.019428706597514847,0.03477328786524447,0.04634596351545754,0.0550912123074724,0.061626792925356805,0.06650772964715432,0.07022771280884198,0.07321909880431116,0.075852910085382,0.07843883516179691,0.0812252286012284,0.08439911102926814,0.08808616912943393,0.09235075564316865,0.09719588936983559,0.10256325516673294,0.108333203949074,0.11435645900494369,0.12078473303062782,0.12769791627550503,0.13511533399788292,0.14305148438965626,0.15151603857629725,0.16051384061687712,0.17004490750403362,0.1801044291639928,0.19068276845655638,0.20176546117512936,0.2133332160466795,0.2253619147317638,0.23782261182451414,0.25068153485266903,0.26390044479608754,0.27750127247689454,0.291446265801169,0.30563252168156185,0.3199598756503589,0.334331183930647,0.34865232343629565,0.362832191771994,0.3767827072331963,0.39041880880615715,0.4036584561679157,0.4164226296863282,0.42863533042001684,0.4402235801184058,0.4511174212217039,0.461249916860932,0.47055715085788324,0.4789782277251489,0.4864552726661087,0.49293343157494857,0.4983608710366308,0.5026887783269158,0.5058713614123548,0.507865848950295,0.5086324902888713,0.5081345554670122,0.5062486989435424,0.5028740735042484,0.4981145215844057,0.4920738593960975,0.48485307197935457,0.4765503132021599,0.467260905760429,0.45707734117804083,0.44608927980681695,0.43438355082653507,0.4220441522448979,0.4091522508975783,0.395786501923132,0.38202443358932514,0.36794130901883515,0.35360956053804715,0.33909878930128534,0.3244757652908317,0.30980442731688745,0.29514588301763106,0.2805584088591781,0.266097450135602,0.2518156209688963,0.23776270430903101,0.22398565193391298,0.21052858444940784,0.19743279128930163,0.18473673071535482,0.17247602981726787,0.16068348451269557,0.14938905954721807,0.1386198884943876,0.1284002737556951,0.11875168656058632,0.1096927669664367,0.10123938507160758,0.09339369460105783,0.08612965595541837,0.07941826016260435,0.07323133932345069,0.06754156661169262,0.062322456273973856,0.05754836362983582,0.05319448507173369,0.04923685806502632,0.04565236114797747,0.04241871393175845,0.03951447710044112,0.03691892215986425,0.0346109434799644,0.03256961152063524,0.030774831087093266,0.029207348057464028,0.02784874938277797,0.02668146308697137,0.02568875826688477,0.024854745092266196,0.02416437480576846,0.023603439722950856,0.02315857323227711,0.02281724979511767,0.02256778494574847,0.022399335291351172,0.022301898512012704,0.02226631336072622,0.02228425966339055,0.02234825831880984,0.022451671298694312,0.022588701647659654,0.02275439348322752,0.02294463199582488,0.023156143448784965,0.023387139842242204,0.023661182831754824,0.023978283180111346,0.02432289277091841,0.024681837503769313,0.025044320141673314,0.02540192031105546,0.025748594501757375,0.02608067606703615,0.026396875223565115,0.02669827905143321,0.02698835149414604,0.027272964541978452,0.02756093354143134,0.027863944294288914,0.02819607598212854,0.02857378464994419,0.02901590320614494,0.029543641422556405,0.030180585934419628,0.03095270024039284,0.031888324702548966,0.03301817654637758,0.034375349860783125,0.03599531559808874,0.03791592157403101,0.04017739246776342,0.042822329821853286,0.04587310573861632,0.04933298188790512,0.053317045237339156,0.05793161213126783,0.06326440488294502,0.06938455177451104,0.07634258705700472,0.08417045095035473,0.09288148964340016,0.10247045529386134,0.11291350602835766,0.12416820594239757,0.13617352510040587,0.1488498395356817,0.1620989312504262,0.17580398821572743,0.18982960437159468,0.20402177962690682,0.21820791985944651,0.2321988553109914,0.24587644171350231,0.25900071511211564,0.27128092030682405,0.2824602199051953,0.29231570760894177,0.3006584082138787,0.30733327760995227,0.31221920278123005,0.31522900180591296,0.31630942385631483,0.3154411491988786,0.31263878919417,0.3079508862968832,0.30145991405582573,0.29328227711393856,0.28356831120828363,0.2725022831700546,0.2603023909245472,0.24718742439812189,0.2333019396214022,0.21890211069066182,0.2042346292154782,0.18952235888978625,0.17496433549184207,0.1607357668842403,0.14698803301387744,0.13384869240937083,0.12142152401594777,0.10978650064882021,0.09899976731293421,0.08909364109758715,0.08007661117639966,0.07193333880732586,0.06462465733263474,0.05808757217894062,0.05223526085718237,0.04701320943823837,0.04224643941064453,0.037414602581364725,0.031999138954505735,0.025498230653761018,0.017426801922392172,0.007316519123254305,-0.005284209261219616,-0.02081023262900428,-0.03969378588877936,-0.061969940926227124,-0.08555372810242295,-0.10779348974764397,-0.12590039588610497,-0.13694844423586996,-0.13787446020891156,-0.12547809691110892,-0.09642183514220919,-0.04723098339586985,0.025135809480060084,0.12140435158218517,0.24065760691239377,0.3796601519680559,0.5328157402758255,0.6921673023919297,0.8473969459020062,0.9858259554214986,1.0924147925950496,1.1536507842712767,1.1648470143545242,1.1251505712633345,1.037741961837783,0.9098366219871309,0.7526849166899118,0.5814554330026469,0.4095163102093697,0.24647694550353744,0.10030642538960924,-0.023416318190109354,-0.12150288254694763,-0.19315550733417647,-0.23873284700311273,-0.25977996667013775,-0.26127878019144213,-0.24789716204897383,-0.22387642046218914,-0.1930312973879837,-0.15874996852078838,-0.12399404329251203,-0.0912985648725733,-0.06277201016781829,-0.04004366645282338,-0.022930193699201698,-0.010223759936338032,-0.0009246004547790246,0.005843967680670926,0.010835545630984801,0.014680652782900368,0.017886726748930916,0.02083812336734904,0.023796116702197882,0.02689889904328638,0.030175201595586232,0.03371245322037338,0.0375694742101132,0.04178069934363145,0.04637715305272904,0.05138644942219524,0.056832792189788275,0.06273697474624804,0.06911638013528892,0.0759849810536161,0.08335333985090132,0.09122863260302577,0.0996147772981586,0.10851234093245732,0.11791848028970037,0.12782694180665047,0.13822806157304235,0.14910876533160916,0.16045256847804265,0.17224014185921444,0.18449890352869697,0.19719930145021192,0.21026354610179745,0.22361448706836298,0.23717561304167453,0.2508710518203869,0.26462557030999323,0.27836457452285995,0.29201410957820795,0.30550085970214896,0.318752148227632,0.33169593759447913,0.34426082934936814,0.3563760641458654,0.36797152174437675,0.3789777210121801,0.38932581992341075,0.3989476155590885,0.40777554410707606,0.4157426808621078,0.42278274022577733,0.4288300757065557,0.43381967991976417,0.4376871845875928,0.4403688605390944,0.4417567683939912,0.4417582686999388,0.4404320637158496,0.4378403586729151,0.43404495822565026,0.42910784748762054,0.42309120140307327,0.4160573847469278,0.40806895212478356,0.399188647972899,0.38947940655822105,0.37900435197836807,0.36782679816163927,0.3560102488669861,0.34361839768405716,0.3307151280331679,0.3173645131653165,0.30363081616215065,0.28957848993601715,0.2752721772299301,0.26077671061758684,0.24615711250333047,0.23147859512220756,0.2168065605399299,0.20220660065289214,0.18774449718813627,0.1734862217034066,0.15949793558711267,0.1458459906300782,0.13259695631676133,0.11981763180486915,0.10757500914690017,0.09593613385872925,0.0849178027974476,0.07448899831002159,0.06463326971018332,0.055333940755026824,0.0465741096449852,0.0383366953727858,0.03060547008287938,0.023365066165093186,0.01659993822026413,0.010294315292599934,0.004432200869659687,-0.001002627117637202,-0.006026616295025565,-0.010656439844872419,-0.014908996506192592,-0.018801410574644004,-0.022351031902526006,-0.025575435898787725,-0.02849242352901558,-0.031120021315440956,-0.03347648133693815,-0.03558028122902854,-0.03745012418387281,-0.03910493895027691,-0.040563879833688615,-0.04184632669620252,-0.04297188495655381,-0.04396038559012187,-0.04483188512892911,-0.04560666566164334,-0.046305234833573176,-0.04694532019042266,-0.047509867320310976,-0.04799825808658695,-0.0484179876530795,-0.04877588536964847,-0.04907811477218398,-0.049330173582607634,-0.04953689370887088,-0.04970244124495667,-0.04983031647087821,-0.049923365344755374,-0.04998451953345828,-0.05001724687077158,-0.05002445723637375,-0.05000839469597343,-0.049970637501310276,-0.04991209809015468,-0.04983302308630777,-0.0497329932996013,-0.04961092372589784,-0.04946506354709041,-0.04929299613110345,-0.049091639031891315,-0.048857243989439414,-0.048585396929764026,-0.04827101796491238,-0.047908361392961334,-0.047491015698019876,-0.04701190355022689,-0.04646328180575187,-0.045851236875851055,-0.045186999544820174,-0.04441967870684246,-0.043496327475938734,-0.0423653717057819,-0.040976609989694206,-0.039281213660650655,-0.03723173111705909,-0.03478213765789469,-0.03188781819621159,-0.028505531092223268,-0.02459340744579336,-0.020110951096439234,-0.015019038623320859,-0.009279919345257612,-0.0028572153207172494,0.004284079417411119,0.012177966917764852,0.020858036332349315,0.030356658224933247,0.040704830419627205,0.051978023626234916,0.06425070093439142,0.07731439699440422,0.09094821752978584,0.10493897465779849,0.1190811868894005,0.13317707912928106,0.1470365826758438,0.16047733522124102,0.1733246808513214,0.18541167004566478,0.19657905967756623,0.20667531301406616,0.21555659971590446,0.22308679583755125,0.22913748382719618,0.23358795252676307,0.23632519717188474,0.23724391939192285,0.23624652720996142,0.23324313504280558,0.22812420554452323,0.22086240842304541,0.21175000706918456,0.20108725570164837,0.1891565386379736,0.17622237029456642,0.16253139518667614,0.14831238792841073,0.1337762532327012,0.11911602591135416,0.10450687087501763,0.09010600457114215,0.07605242953172461,0.062467184250946044,0.04945343731946728,0.0370964874268062,0.025463763361306936,0.014604824010187428,0.004551358359506593,-0.00468281450582123,-0.01310174540204933,-0.02072735504656351,-0.027599434057906456,-0.03377564295576691,-0.039298096114488666,-0.043663606509903544,-0.047652531790081255,-0.05237429213153938,-0.05870059936304366,-0.06726545696558944,-0.07846516007241322,-0.09245829546898005,-0.10916574159302099,-0.12827066853447974,-0.14921853803554597,-0.17121710349063382,-0.1932364099464385,-0.21505646560399802,-0.23268122461756902,-0.2397972871807156,-0.23138703375819672,-0.20373089243587186,-0.1544073389202553,-0.08229289653856149,0.012437863761494373,0.12831232341142032,0.2625598162221163,0.4111115694652012,0.5686003188149272,0.7277910536040785,0.873832265783943,0.9903075534800505,1.0653302321105542,1.0916396191125848,1.066601033941951,0.9922057980733692,0.8750712350004876,0.7264401769374453,0.5597675529058682,0.3872538012656482,0.21988215784523898,0.0663813936928097,-0.06677418492310329,-0.1753647365140365,-0.25742488437144434,-0.31324371656689365,-0.3451038394548099,-0.3542233485481506,-0.34530187612822116,-0.3236349061595181,-0.29383120415380626,-0.25981281717010496,-0.22481507381471028,-0.19138658424110494,-0.16138924015009462,-0.13599821478971744,-0.11570196295527707,-0.10027377035532517,-0.0884599613061961,-0.07941586112097274,-0.07258725855917719,-0.06746933003083641,-0.0636066395965091,-0.0605930828950208,-0.05807116149948846,-0.055732190884852845,-0.0533168609492104,-0.05061524924117376,-0.047466820959873396,-0.04376042895495974,-0.03943431372659396,-0.03447610342546148,-0.02892281385276381,-0.02286084846022407,-0.01642599835007081,-0.009771613527895066,-0.0027216707820527947,0.004810311653483178,0.012839500210740007,0.021375766955720618,0.030423689588424365,0.039982551442834136,0.050046341486942855,0.060603754322715475,0.07163819018611382,0.08312775494708317,0.09504526010958153,0.10735822281153572,0.1200288658248707,0.13301411755549367,0.14626561230459925,0.1597297377126345,0.17334768994399194,0.18705538418511722,0.20078344125647374,0.21450026764059507,0.2281529428798205,0.24163069897944298,0.25482857328506014,0.26764744326919815,0.279993458839366,0.2917779467583302,0.30291805466333815,0.3133367894395537,0.3229630172200897,0.33173146338599363,0.3395827125662708,0.3464632086378492,0.35232525472560405,0.3571270132023473,0.36083250568884123,0.3634116130537785,0.36484007541379637,0.36509949213347154,0.3641773218253234,0.362066882349809,0.35876735081532746,0.3542682847628441,0.3484929233705187,0.3415111357340182,0.333419436816293,0.32431196862300055,0.31428050020251447,0.30341442764589965,0.29180077408694927,0.27952418970216103,0.26666695171075055,0.2533089643746192,0.23952775899840256,0.22539849392943823,0.21099395455778325,0.196384553316177,0.18163832968009638,0.1668209501677194,0.15199570833994325,0.13722352800477225,0.12256329164363611,0.10807212469103046,0.0938048466097164,0.07981390390513778,0.06614937012547588,0.052858945861612494,0.03998795874714829,0.02757936345836851,0.015673741714294344,0.00430930227664771,-0.006478119050132273,-0.01665182369140948,-0.026194833379627313,-0.03512919491980318,-0.043478500079519526,-0.051265938390667336,-0.0585142971494138,-0.0652459614162244,-0.07148291401585392,-0.07724673553736064,-0.08255860433408434,-0.0874392965236611,-0.09190918598801966,-0.09598824437337924,-0.09969604109025909,-0.10305174331346334,-0.10607411598209154,-0.10878152655116591,-0.11119205216363294,-0.11332348113474092,-0.11519320459255772,-0.11681821142944317,-0.11821508830205266,-0.11940001963133107,-0.12038878760251717,-0.12119677225101445,-0.12183910149179174,-0.12233095971458527,-0.12268721638543921,-0.12292233873468994,-0.12305039175696719,-0.12308503821119246,-0.12303953862058079,-0.12292675127263904,-0.12275913221916737,-0.12254873527625831,-0.12230721202429722,-0.12201720239468862,-0.12164062555353378,-0.12119530610077923,-0.12069857003954368,-0.12016589105619936,-0.11961089052037248,-0.11904533748494377,-0.11847914868604759,-0.11792038854307318,-0.11737526915866242,-0.11684815031871257,-0.11634153949237426,-0.11585609183205293,-0.11539061017340667,-0.11494204503534917,-0.11450549462004728,-0.11407420481292237,-0.1136395691826494,-0.11319112898115782,-0.11271657314363105,-0.1122017382885065,-0.11163060871747577,-0.11098531641548419,-0.11024614105073144,-0.10939150997467119,-0.10839800451176505,-0.10724038621317823,-0.10589157480713608,-0.10432263771024333,-0.10250279002235992,-0.10039939452659657,-0.09797796168932137,-0.09520214966015497,-0.09203376427197485,-0.08843275904090614,-0.08420466330200499,-0.07911867176252502,-0.07318734491676776,-0.0664313151504625,-0.05887744962819015,-0.050558850293368054,-0.0415148538682602,-0.031791031853953405,-0.021439190530391408,-0.010517370956353168,0.000910151030534921,0.01277286481382801,0.02499402499821924,0.03749065140956851,0.05017352909488774,0.06294720832237204,0.07571000458135292,0.0883539985823288,0.1007650498184352,0.11282289070511065,0.12440107023860428,0.13536690295263634,0.1455814686020802,0.1548996121629878,0.16316994383255215,0.17023483902913156,0.17593050311614128,0.1800874917797002,0.18253043667328564,0.18307773753652717,0.18154155933021315,0.17772783223629496,0.17159362623919072,0.16358684355868872,0.15398234838075073,0.14302656778343287,0.1309541880175817,0.11798815450687708,0.10433967184780392,0.0902082038096685,0.07578147333456269,0.061235462537416754,0.04673441270596419,0.03243082430076069,0.018465456955145804,0.004967329475298947,-0.007946280159797108,-0.020169834798340197,-0.031609538115739313,-0.042183334614566956,-0.05173889080200535,-0.05946109508996701,-0.06568020018865044,-0.07100481865114854,-0.07597763707136677,-0.08107541608401536,-0.0867089903646213,-0.0932232686295095,-0.10089723363581592,-0.10994394218147774,-0.12051052510525674,-0.1326781872867064,-0.1464622431557608,-0.16181269942300508,-0.17861416154006324,-0.19668532564300767,-0.21577896190872764,-0.23558191455490704,-0.25571510184007534,-0.2751783724438589,-0.2888073504394724,-0.290763892173846,-0.2764541312684094,-0.24252894088206145,-0.18688393371118583,-0.10865946198964596,-0.008240617488855816,0.11274276848249187,0.2514161250780386,0.4036601419140042,0.5641232776964209,0.7225672945499645,0.8619689557137645,0.9683042081347251,1.0316933485624975,1.0464010235496144,1.010836229451238,0.9275523124253598,0.8031181512324568,0.6488836280147999,0.4794822415490581,0.30759346628287354,0.14356070365210025,-0.0046086893124792855,-0.1312433924552048,-0.23300812249597064,-0.307539699144416,-0.35342954734780446,-0.375632447013815,-0.37904671417088814,-0.3681169142574514,-0.3468341918481539,-0.31873629560431177,-0.2869075782738873,-0.2539789966915121,-0.22212811177840217,-0.19307908854248615,-0.16810269607832137,-0.14801630756712264,-0.1331698046561749,-0.12234880207519333,-0.11424129132509424,-0.1081828449142578,-0.10358609926037031,-0.09994075469044687,-0.09681357544081505,-0.09384838965712132,-0.0907660893943233,-0.08736463061670145,-0.08351903319785078,-0.07918138092068372,-0.07438082147743239,-0.06922356646963672,-0.06383051735223844,-0.05805135599886417,-0.05183382202410739,-0.04515388938031034,-0.0379918279287404,-0.030332203439574726,-0.022163877591909145,-0.013480007973737367,-0.0042780480819820605,0.0054402526775258545,0.015668848990035115,0.026397399822404244,0.037611303462556284,0.04929173849923067,0.06141559756295262,0.07395547737535735,0.0868796787491435,0.10015249493418292,0.11380296231077468,0.1277998871996534,0.14204204135800866,0.15643131788051545,0.1708727311993169,0.18527441708406078,0.1995476326418441,0.21360675631725012,0.22736928789233096,0.24075584848664142,0.2536901805571874,0.26609914789846045,0.2779127356424216,0.289064050258532,0.2994893195537067,0.30912789267234553,0.31792224009632,0.3258179536449953,0.3327637464751965,0.33871145308123185,0.3436160292948837,0.3474355522854204,0.3501312200337447,0.3516673224865497,0.352011226612096,0.35113341704202045,0.3489632256006208,0.3454056130929467,0.340549938713669,0.33449373509838604,0.32733203291662805,0.3191569954161093,0.3100583106157668,0.3001233051326036,0.2894369441816624,0.2780818315760644,0.26613820972698365,0.2536839596436619,0.2407946009333678,0.22754329180148655,0.21400082905141368,0.20023564808460134,0.18631382290061588,0.1722990660970289,0.158252728869471,0.14423380101168667,0.13029891091540752,0.11650232557049593,0.1028959505648203,0.08952933008430909,0.07644964691300123,0.06370172243294395,0.05132801662424441,0.03936862806511771,0.027861293931775243,0.016841389998548086,0.006341930637781729,-0.0036064311801158105,-0.012975403886639598,-0.021738652317596134,-0.029873106574302154,-0.03739841640556151,-0.0443451924496579,-0.05074328543813442,-0.056621786195859405,-0.062009025640995176,-0.06693246423595649,-0.07141812485188842,-0.07549101378523458,-0.07917537694041944,-0.08249470031516262,-0.08547171000046858,-0.0881283721806522,-0.09048589313332375,-0.09256471922938228,-0.0943845369330351,-0.09596427280177731,-0.09732209348640805,-0.09847540573102265,-0.09944085637300987,-0.10023433234305981,-0.10087096066515897,-0.10136510845658941,-0.10173038292793274,-0.10197963138306612,-0.10212494121916531,-0.10217763992670255,-0.10214829508944775,-0.10204671438446818,-0.1018819455821277,-0.1016622765460887,-0.1013952352333096,-0.10108758969404742,-0.10074534807185553,-0.10037375860358384,-0.09997729943615416,-0.0995595512276337,-0.0991232359066817,-0.09867031333096575,-0.09820198345144796,-0.09771868631239104,-0.09722010205135248,-0.09670520390451337,-0.09617278538437327,-0.09561939759814218,-0.09502952913711156,-0.09441001286199129,-0.09377068186725353,-0.09311843578468179,-0.092457240783363,-0.0917881295696918,-0.09110920138737211,-0.0904156220174114,-0.08969962377812765,-0.0889505055251436,-0.08815463265138787,-0.08729543708710014,-0.08635341729982374,-0.08530613829440795,-0.08412823161301447,-0.08279139533510474,-0.08126439407745498,-0.07951305899414246,-0.07750028777655107,-0.07518604465337855,-0.07252736039062357,-0.06947833229158859,-0.06599016170562945,-0.062065058542599444,-0.057651771634346344,-0.052641931129195636,-0.046945458906612496,-0.04049056857722504,-0.03322376548278283,-0.025109846696172073,-0.016131901021452778,-0.00629130899378335,0.004392257120488634,0.015880844527095993,0.02811845747783247,0.0410310524263632,0.0545263043295004,0.06849359641291644,0.08280402017108848,0.09731037536742379,0.11184717003411467,0.12623062047226716,0.14030441028903287,0.1538750261796505,0.1666662137490848,0.17843131876871884,0.18895423653938007,0.19804941189144096,0.20556183918471344,0.21136706230853325,0.21537117468171713,0.2175108192525553,0.21775318849884273,0.21609602442785691,0.2125676185763661,0.207226812010618,0.20016299532637008,0.19147665246890222,0.1812853382210351,0.1698378228503997,0.15738045169098927,0.14414588527883518,0.13035309935190115,0.11620733993495919,0.10189993195612213,0.08760843811167954,0.07349673625498467,0.05971501944142339,0.04639979592828903,0.03367389251820999,0.02164665425371657,0.010414057499664687,0.00013546568931553475,-0.008304397531694492,-0.015141082887973925,-0.020926488824620726,-0.026157357018072383,-0.03127527237604548,-0.03666666303758265,-0.04266280037303557,-0.04953979898404035,-0.05751861670356144,-0.0667650545958769,-0.0773897569565357,